0.3970336914
0.3945007324
0.3945007324
0.3938598633
0.3935546875
0.3926086426
0.3929138184
0.3973693848
0.3979797363
0.4185791016
0.4198608398
0.5267028809
0.5384216309
0.2965393066
0.3000183105
0.387512207
0.3913269043
0.4274597168
0.4198608398
0.2654724121
0.2588195801
0.1532592773
0.1535644531
0.2372741699
0.2426452637
0.3513793945
0.3548583984
0.4024047852
0.4033813477
0.4103393555
0.4090881348
0.3850097656
0.3837280273
0.3773803711
0.3815002441
0.3859558105
0.3862609863
0.3951416016
0.3954467773
0.4033813477
0.4033813477
0.4046325684
0.4040222168
0.4027404785
0.4030761719
0.3995666504
0.3995666504
0.3960876465
0.3957519531
0.3941955566
0.3941955566
0.3954467773
0.3957519531
0.3995666504
0.3995666504
0.4014587402
0.4005126953
0.3964233398
0.3957519531
0.3827819824
0.3824462891
0.3729248047
0.3726196289
0.3637390137
0.364074707
0.3618469238
0.3634338379
0.3678894043
0.3678894043
0.3688354492
0.3675537109
0.3637390137
0.364074707
0.3602600098
0.359954834
0.3590087891
0.3596191406
0.3637390137
0.364074707
0.3700866699
0.3707275391
0.373260498
0.373260498
0.3751525879
0.3761291504
0.3745422363
0.3748474121
0.3723144531
0.3726196289
0.374206543
0.3745422363
0.3770751953
0.376739502
0.3776855469
0.3770751953
0.3780212402
0.3773803711
0.3789672852
0.3786315918
0.380859375
0.3815002441
0.3796081543
0.3796081543
0.376739502
0.375793457
0.3770751953
0.3770751953
0.378326416
0.378326416
0.3802490234
0.3799133301
0.3837280273
0.3840332031
0.3881530762
0.3884887695
0.3964233398
0.3970336914
0.4056091309
0.4059143066
0.4132080078
0.4128723145
0.415435791
0.4141540527
0.3513793945
0.3441162109
0.2464599609
0.2502441406
0.311126709
0.3130187988
0.3526611328
0.3536071777
0.374206543
0.3748474121
0.3869018555
0.3872070312
0.3948059082
0.3951416016
0.3992614746
0.3992614746
0.4014587402
0.4011535645
0.3983154297
0.3979797363
0.3945007324
0.3941955566
0.3916625977
0.3913269043
0.387512207
0.3878479004
0.3859558105
0.3865661621
0.3856201172
0.3859558105
0.3846740723
0.3846740723
0.3824462891
0.3827819824
0.3815002441
0.3824462891
0.3843383789
0.3846740723
0.3869018555
0.3865661621
0.3881530762
0.3878479004
0.3887939453
0.3890991211
0.3897399902
0.3897399902
0.3878479004
0.387512207
0.3770751953
0.3754882812
0.3463134766
0.3453674316
0.3342590332
0.3336486816
0.3399658203
0.3403015137
0.3586730957
0.3596191406
0.3859558105
0.3869018555
0.4090881348
0.4103393555
0.4344482422
0.4350891113
0.4537658691
0.4547119141
0.4689941406
0.4680480957
0.3897399902
0.3821411133
0.1393127441
0.1047363281
0.2043151855
0.208404541
0.3406066895
0.3450622559
0.4128723145
0.4141540527
0.4303283691
0.4309387207
0.427154541
0.4268493652
0.4151000977
0.4144897461
0.3960876465
0.3954467773
0.3789672852
0.3780212402
0.369140625
0.3681945801
0.3713684082
0.371673584
0.3821411133
0.3824462891
0.390045166
0.3903808594
0.396697998
0.396697998
0.3999023438
0.4002075195
0.3964233398
0.3964233398
0.387512207
0.3872070312
0.3799133301
0.3793029785
0.3735961914
0.3729248047
0.3697814941
0.3700866699
0.3675537109
0.3672180176
0.3659667969
0.366607666
0.3719787598
0.3719787598
0.3793029785
0.3799133301
0.390045166
0.3903808594
0.4033813477
0.4036865234
0.41796875
0.4182739258
0.4309387207
0.4312744141
0.44140625
0.4417419434
0.4499816895
0.4502868652
0.4598083496
0.4607543945
0.4296875
0.4262084961
0.2724609375
0.2651672363
0.1722717285
0.1722717285
0.2229919434
0.2271118164
0.3333129883
0.3371276855
0.4062194824
0.4081115723
0.4316101074
0.4319152832
0.4356994629
0.4353942871
0.4299926758
0.4296875
0.4217529297
0.4211425781
0.411315918
0.4109802246
0.4036865234
0.4033813477
0.3941955566
0.3935546875
0.3872070312
0.3856201172
0.3881530762
0.3878479004
0.3957519531
0.3964233398
0.4125671387
0.4138183594
0.4331665039
0.4341125488
0.4559936523
0.4569396973
0.481048584
0.4822998047
0.5222473145
0.5244750977
0.5720214844
0.5739135742
0.6227416992
0.6217956543
0.4401550293
0.4274597168
0.1986083984
0.3022460938
-0.1532897949
0.07781982422
-0.1586914062
-0.1662902832
0.1260070801
0.1396179199
0.4005126953
0.4065551758
0.4845275879
0.486114502
0.4962768555
0.4921264648
0.4655151367
0.4642333984
0.4353942871
0.433807373
0.4090881348
0.4081115723
0.3995666504
0.3995666504
0.4014587402
0.402130127
0.3992614746
0.3989257812
0.3926086426
0.3922729492
0.3827819824
0.3824462891
0.3707275391
0.3700866699
0.3634338379
0.3634338379
0.3662719727
0.3659667969
0.3729248047
0.373260498
0.3843383789
0.3850097656
0.4002075195
0.4008483887
0.4166870117
0.4173278809
0.422088623
0.422088623
0.4141540527
0.4138183594
0.3945007324
0.3935546875
0.378326416
0.3770751953
0.3799133301
0.3805541992
0.3970336914
0.3979797363
0.4299926758
0.432220459
0.5260620117
0.7168884277
0.4335021973
0.3583679199
-0.4268798828
-0.4160766602
0.1627502441
0.1811523438
0.4379272461
0.4423522949
0.4791564941
0.4797668457
0.4765930176
0.4762878418
0.4728088379
0.4721679688
0.4737548828
0.4740600586
0.4829406738
0.483581543
0.5041809082
0.5165405273
0.5048217773
0.5022888184
0.3450622559
0.3352050781
0.1840209961
0.1722717285
0.2147521973
0.2192077637
0.33203125
0.3364868164
0.4068603516
0.4084472656
0.4268493652
0.4265136719
0.4071655273
0.4059143066
0.3897399902
0.3916625977
0.390045166
0.3897399902
0.3913269043
0.3913269043
0.3941955566
0.3948059082
0.3932189941
0.3932189941
0.3903808594
0.3903808594
0.387512207
0.3862609863
0.3887939453
0.3887939453
0.3964233398
0.3964233398
0.4030761719
0.4033813477
0.4128723145
0.4128723145
0.4151000977
0.4138183594
0.4005126953
0.3999023438
0.3776855469
0.376739502
0.3583679199
0.3564758301
0.3609008789
0.3612060547
0.369140625
0.3688354492
0.3466186523
0.3453674316
0.3317260742
0.3333129883
0.3659667969
0.3704223633
0.3564758301
0.3548583984
0.3222351074
0.3120727539
0.3212890625
0.3225402832
0.3780212402
0.3805541992
0.4217529297
0.4226989746
0.4398193359
0.4401550293
0.4432983398
0.4430236816
0.4366455078
0.4360351562
0.4208068848
0.4201965332
0.4049682617
0.4043273926
0.3910217285
0.3903808594
0.3840332031
0.3843383789
0.3894348145
0.3897399902
0.3941955566
0.3945007324
0.396697998
0.3964233398
0.3976745605
0.396697998
0.3976745605
0.3970336914
0.390045166
0.3897399902
0.3865661621
0.387512207
0.3659667969
0.3618469238
0.2341003418
0.2249145508
0.2689819336
0.2724609375
0.3310852051
0.3327026367
0.3681945801
0.3688354492
0.3878479004
0.3884887695
0.3973693848
0.3976745605
0.4011535645
0.4014587402
0.4071655273
0.4078063965
0.4309387207
0.5133972168
0.3837280273
0.3434448242
0.2623291016
0.264831543
0.3358459473
0.3384094238
0.3830871582
0.3840332031
0.3922729492
0.3913269043
0.3945007324
0.3945007324
0.3979797363
0.3976745605
0.3989257812
0.3986206055
0.3897399902
0.3884887695
0.353302002
0.3526611328
0.3387145996
0.3374328613
0.3412475586
0.3415527344
0.3605651855
0.3615112305
0.3884887695
0.3894348145
0.4106750488
0.4116210938
0.4344482422
0.4350891113
0.4525146484
0.4531555176
0.4651794434
0.4658203125
0.4160461426
0.4078063965
0.1507263184
0.09777832031
0.191619873
0.1954345703
0.3231811523
0.3285522461
0.4062194824
0.4081115723
0.4331665039
0.433807373
0.4376220703
0.436340332
0.4299926758
0.4293823242
0.41796875
0.4173278809
0.4062194824
0.4059143066
0.3973693848
0.3973693848
0.3926086426
0.3922729492
0.3890991211
0.3890991211
0.3869018555
0.387512207
0.3853149414
0.3853149414
0.383392334
0.383392334
0.380859375
0.380859375
0.3796081543
0.3802490234
0.3789672852
0.3793029785
0.3773803711
0.3776855469
0.3786315918
0.378326416
0.3815002441
0.3818054199
0.3837280273
0.383392334
0.3846740723
0.3843383789
0.3853149414
0.3846740723
0.3818054199
0.3818054199
0.3745422363
0.374206543
0.3662719727
0.3662719727
0.3637390137
0.3647155762
0.3694458008
0.3697814941
0.3764343262
0.376739502
0.380859375
0.380859375
0.3824462891
0.3830871582
0.3821411133
0.3821411133
0.380859375
0.3818054199
0.3805541992
0.380859375
0.3789672852
0.3793029785
0.3770751953
0.376739502
0.3754882812
0.3754882812
0.374206543
0.3745422363
0.375793457
0.3754882812
0.3764343262
0.3754882812
0.376739502
0.3764343262
0.3776855469
0.3776855469
0.3789672852
0.3786315918
0.3773803711
0.3770751953
0.3748474121
0.3748474121
0.3754882812
0.375793457
0.3745422363
0.374206543
0.3748474121
0.374206543
0.3729248047
0.3729248047
0.3713684082
0.3710327148
0.3719787598
0.371673584
0.3751525879
0.3748474121
0.3764343262
0.3761291504
0.378326416
0.3786315918
0.3805541992
0.3805541992
0.3821411133
0.3815002441
0.3827819824
0.3824462891
0.3859558105
0.3859558105
0.3887939453
0.3887939453
0.3929138184
0.3926086426
0.3976745605
0.3979797363
0.4040222168
0.4036865234
0.4056091309
0.4059143066
0.4046325684
0.4043273926
0.4024047852
0.4027404785
0.3986206055
0.3986206055
0.3922729492
0.3922729492
0.3837280273
0.383392334
0.3764343262
0.3761291504
0.3681945801
0.3678894043
0.3583679199
0.3586730957
0.350769043
0.3504333496
0.3479003906
0.3488464355
0.3548583984
0.3551940918
0.3615112305
0.3621826172
0.3707275391
0.3710327148
0.3780212402
0.378326416
0.3827819824
0.383392334
0.3815002441
0.3811950684
0.3796081543
0.3796081543
0.3818054199
0.3824462891
0.3805541992
0.380859375
0.3824462891
0.3824462891
0.383392334
0.3827819824
0.3846740723
0.3853149414
0.3926086426
0.3938598633
0.3919677734
0.3926086426
0.3979797363
0.3979797363
0.4122619629
0.4128723145
0.4486999512
0.4502868652
0.4981689453
0.5010070801
0.5311279297
0.5200500488
0.250579834
0.3989257812
0.02105712891
-0.100982666
0.2534179688
0.2585144043
0.2689819336
0.2680358887
0.3621826172
0.3669128418
0.4344482422
0.4356994629
0.4566345215
0.4569396973
0.4594726562
0.4575805664
0.4477539062
0.4471130371
0.4328613281
0.432220459
0.41796875
0.4173278809
0.4062194824
0.4059143066
0.3932189941
0.3926086426
0.378326416
0.3780212402
0.3704223633
0.3700866699
0.3681945801
0.3678894043
0.3697814941
0.3700866699
0.3735961914
0.3735961914
0.3761291504
0.3761291504
0.3735961914
0.3739013672
0.3726196289
0.3726196289
0.376739502
0.3761291504
0.3789672852
0.3786315918
0.3799133301
0.3796081543
0.3789672852
0.3789672852
0.3754882812
0.3754882812
0.3719787598
0.3723144531
0.3694458008
0.3700866699
0.369140625
0.3700866699
0.3688354492
0.369140625
0.3681945801
0.3700866699
0.3684997559
0.3694458008
0.3713684082
0.371673584
0.3735961914
0.3729248047
0.374206543
0.374206543
0.3729248047
0.3729248047
0.374206543
0.3739013672
0.3751525879
0.3751525879
0.3776855469
0.3780212402
0.3799133301
0.3802490234
0.3811950684
0.3805541992
0.3815002441
0.3815002441
0.3805541992
0.380859375
0.3799133301
0.3796081543
0.3780212402
0.378326416
0.3770751953
0.3776855469
0.3764343262
0.376739502
0.375793457
0.3754882812
0.3748474121
0.3751525879
0.3739013672
0.374206543
0.3751525879
0.375793457
0.3748474121
0.3764343262
0.3754882812
0.3764343262
0.3789672852
0.3793029785
0.3859558105
0.3862609863
0.3929138184
0.3932189941
0.3995666504
0.4002075195
0.4081115723
0.4078063965
0.4173278809
0.41796875
0.4335021973
0.4335021973
0.4461669922
0.4477539062
0.4382629395
0.4366455078
0.4008483887
0.4122619629
0.3054199219
0.3424987793
0.1542053223
0.2280883789
-0.02297973633
0.05847167969
0.2876586914
0.2975158691
0.4559936523
0.475982666
0.4502868652
0.4465026855
0.2762451172
0.2699279785
0.2229919434
0.2242736816
0.2978210449
0.3022460938
0.3970336914
0.4002075195
0.4468078613
0.448059082
0.4598083496
0.4613952637
0.4569396973
0.4563293457
0.445526123
0.4452209473
0.4350891113
0.434753418
0.4281005859
0.4281005859
0.422088623
0.4217529297
0.4147949219
0.4144897461
0.4097290039
0.4097290039
0.4065551758
0.4062194824
0.4011535645
0.4008483887
0.3951416016
0.3951416016
0.3935546875
0.3932189941
0.3945007324
0.3945007324
0.3957519531
0.3957519531
0.3979797363
0.3976745605
0.4014587402
0.4014587402
0.4084472656
0.408782959
0.4185791016
0.4192199707
0.4395141602
0.4404602051
0.4594726562
0.4604187012
0.4832458496
0.483581543
0.4138183594
0.4065551758
0.195098877
0.1878051758
0.08477783203
0.0876159668
0.1935119629
0.1998596191
0.3361816406
0.3406066895
0.4290466309
0.4316101074
0.4804077148
0.4813537598
0.4864196777
0.4864196777
0.5257568359
0.5292358398
0.729888916
0.7413024902
0.08129882812
0.09588623047
-0.3178100586
-0.03219604492
0.2401123047
0.2483520508
0.1703796387
0.2087402344
0.3694458008
0.3754882812
0.4886474609
0.4918212891
0.5307922363
0.532409668
0.5276489258
0.5273132324
0.5073547363
0.5064086914
0.4797668457
0.478515625
0.4559936523
0.4553833008
0.4430236816
0.4426879883
0.4353942871
0.434753418
0.425567627
0.4249267578
0.4078063965
0.4056091309
0.2667541504
0.240447998
0.2680358887
0.2702331543
0.3257141113
0.3276062012
0.3596191406
0.3605651855
0.3776855469
0.3786315918
0.3948059082
0.3957519531
0.4071655273
0.4078063965
0.4128723145
0.4125671387
0.4138183594
0.4147949219
0.4138183594
0.4141540527
0.415435791
0.415435791
0.4138183594
0.4138183594
0.411315918
0.4116210938
0.4078063965
0.4078063965
0.4046325684
0.4046325684
0.4014587402
0.4011535645
0.3976745605
0.3979797363
0.3948059082
0.3945007324
0.3919677734
0.3919677734
0.3853149414
0.3989257812
0.1542053223
-0.1082763672
0.06353759766
0.371673584
0.3780212402
0.4509277344
0.4528198242
0.4658203125
0.4617004395
0.4423522949
0.44140625
0.420501709
0.4198608398
0.4030761719
0.4024047852
0.3903808594
0.390045166
0.383392334
0.383392334
0.3799133301
0.3802490234
0.3789672852
0.3793029785
0.3802490234
0.3799133301
0.3811950684
0.3811950684
0.3827819824
0.3827819824
0.3840332031
0.3840332031
0.3821411133
0.3818054199
0.3802490234
0.3805541992
0.3793029785
0.3796081543
0.3805541992
0.3805541992
0.3799133301
0.380859375
0.3824462891
0.3824462891
0.383392334
0.383392334
0.3843383789
0.383392334
0.3824462891
0.3830871582
0.3818054199
0.3821411133
0.380859375
0.3811950684
0.3802490234
0.3802490234
0.3805541992
0.3799133301
0.3811950684
0.3799133301
0.3786315918
0.3793029785
0.3780212402
0.3786315918
0.3776855469
0.3776855469
0.378326416
0.3776855469
0.378326416
0.3780212402
0.3786315918
0.3786315918
0.3776855469
0.3786315918
0.3770751953
0.3773803711
0.375793457
0.3754882812
0.375793457
0.3754882812
0.3761291504
0.375793457
0.3770751953
0.376739502
0.3776855469
0.3773803711
0.3786315918
0.3786315918
0.3793029785
0.3793029785
0.3802490234
0.3789672852
0.3799133301
0.3796081543
0.378326416
0.378326416
0.3761291504
0.3761291504
0.3751525879
0.3751525879
0.3745422363
0.374206543
0.3754882812
0.3764343262
0.3751525879
0.3748474121
0.3754882812
0.3751525879
0.3764343262
0.3764343262
0.3754882812
0.3748474121
0.3761291504
0.3761291504
0.3770751953
0.3773803711
0.3780212402
0.378326416
0.3776855469
0.3780212402
0.3789672852
0.3786315918
0.3793029785
0.3789672852
0.3805541992
0.3802490234
0.3811950684
0.380859375
0.3815002441
0.3818054199
0.3811950684
0.3821411133
0.3815002441
0.3815002441
0.3821411133
0.3821411133
0.3815002441
0.3821411133
0.3827819824
0.3827819824
0.3821411133
0.3821411133
0.3830871582
0.3824462891
0.3830871582
0.3824462891
0.3830871582
0.3827819824
0.3821411133
0.3821411133
0.3815002441
0.3818054199
0.380859375
0.3815002441
0.380859375
0.380859375
0.3818054199
0.380859375
0.3818054199
0.3818054199
0.3843383789
0.3843383789
0.3865661621
0.3865661621
0.3872070312
0.3869018555
0.3853149414
0.3853149414
0.3802490234
0.3799133301
0.373260498
0.373260498
0.3697814941
0.3694458008
0.3726196289
0.3719787598
0.374206543
0.374206543
0.3761291504
0.3761291504
0.3770751953
0.376739502
0.3780212402
0.3773803711
0.3786315918
0.3786315918
0.3780212402
0.378326416
0.3793029785
0.3789672852
0.3796081543
0.3789672852
0.3799133301
0.3793029785
0.3789672852
0.3793029785
0.3799133301
0.3796081543
0.3786315918
0.3789672852
0.3796081543
0.3789672852
0.3776855469
0.378326416
0.3770751953
0.3773803711
0.376739502
0.376739502
0.3776855469
0.3770751953
0.3780212402
0.3773803711
0.3786315918
0.3780212402
0.3789672852
0.378326416
0.3789672852
0.378326416
0.3789672852
0.378326416
0.3802490234
0.3805541992
0.3818054199
0.3824462891
0.3818054199
0.3818054199
0.3799133301
0.3799133301
0.3780212402
0.378326416
0.3770751953
0.376739502
0.3773803711
0.3770751953
0.3780212402
0.3780212402
0.3770751953
0.3773803711
0.378326416
0.3780212402
0.3793029785
0.3793029785
0.3796081543
0.3793029785
0.3805541992
0.3805541992
0.3818054199
0.3821411133
0.3837280273
0.3837280273
0.3846740723
0.3843383789
0.3850097656
0.3853149414
0.3846740723
0.3850097656
0.3872070312
0.387512207
0.390045166
0.390045166
0.3919677734
0.3919677734
0.3935546875
0.3926086426
0.3869018555
0.3869018555
0.3793029785
0.3793029785
0.3739013672
0.3735961914
0.3681945801
0.3681945801
0.3662719727
0.3672180176
0.3697814941
0.3700866699
0.371673584
0.3713684082
0.373260498
0.373260498
0.3764343262
0.3764343262
0.3786315918
0.3786315918
0.380859375
0.3811950684
0.3802490234
0.3805541992
0.3789672852
0.3786315918
0.3773803711
0.3773803711
0.3754882812
0.3761291504
0.3748474121
0.3751525879
0.3745422363
0.3745422363
0.3735961914
0.3739013672
0.3729248047
0.3729248047
0.3739013672
0.373260498
0.374206543
0.3735961914
0.3754882812
0.3751525879
0.376739502
0.3770751953
0.3802490234
0.3802490234
0.3827819824
0.3821411133
0.3840332031
0.3840332031
0.3859558105
0.3856201172
0.3869018555
0.3865661621
0.3878479004
0.3869018555
0.3881530762
0.387512207
0.3887939453
0.3872070312
0.3878479004
0.387512207
0.3859558105
0.3859558105
0.3837280273
0.3837280273
0.3818054199
0.3821411133
0.3811950684
0.3824462891
0.3811950684
0.3818054199
0.380859375
0.3811950684
0.3805541992
0.3805541992
0.3815002441
0.3811950684
0.3802490234
0.3802490234
0.380859375
0.380859375
0.3802490234
0.3805541992
0.3799133301
0.3802490234
0.3796081543
0.3799133301
0.3811950684
0.380859375
0.3818054199
0.3815002441
0.3821411133
0.3824462891
0.3811950684
0.3821411133
0.3815002441
0.3818054199
0.380859375
0.3811950684
0.3821411133
0.3815002441
0.3821411133
0.3821411133
0.3815002441
0.3815002441
0.3824462891
0.3821411133
0.3830871582
0.3830871582
0.3840332031
0.383392334
0.3840332031
0.3837280273
0.3843383789
0.3840332031
0.3824462891
0.3821411133
0.3811950684
0.3811950684
0.3793029785
0.3799133301
0.378326416
0.3786315918
0.3776855469
0.378326416
0.3770751953
0.3770751953
0.3776855469
0.3773803711
0.3770751953
0.3770751953
0.378326416
0.3776855469
0.3786315918
0.378326416
0.3796081543
0.3793029785
0.3805541992
0.3799133301
0.3811950684
0.3811950684
0.3824462891
0.3821411133
0.383392334
0.383392334
0.3824462891
0.3821411133
0.3789672852
0.3789672852
0.3754882812
0.3754882812
0.3719787598
0.3719787598
0.3688354492
0.369140625
0.3678894043
0.3681945801
0.3688354492
0.3688354492
0.3697814941
0.3697814941
0.3735961914
0.373260498
0.3751525879
0.3751525879
0.375793457
0.375793457
0.3751525879
0.3748474121
0.375793457
0.375793457
0.3815002441
0.3824462891
0.3992614746
0.3999023438
0.4189147949
0.4198608398
0.4430236816
0.4442749023
0.4791564941
0.4940490723
0.4750061035
0.4715270996
0.3190612793
0.311126709
0.2388305664
0.2699279785
0.4613952637
0.545715332
0.1354980469
0.1079406738
-0.01727294922
0.1190185547
0.30859375
0.3092041016
0.3466186523
0.3482055664
0.3894348145
0.3907165527
0.4014587402
0.402130127
0.4296875
0.4309387207
0.4483947754
0.449005127
0.4632873535
0.4636230469
0.4750061035
0.4775390625
0.4559936523
0.4522094727
0.3482055664
0.3437805176
0.2955932617
0.2990722656
0.3390197754
0.3412475586
0.3869018555
0.3881530762
0.4116210938
0.4119262695
0.4195251465
0.4189147949
0.4125671387
0.4119262695
0.402130127
0.4017944336
0.3964233398
0.3960876465
0.3929138184
0.3929138184
0.3913269043
0.3913269043
0.3887939453
0.3887939453
0.3865661621
0.3865661621
0.3853149414
0.3856201172
0.3869018555
0.3869018555
0.3856201172
0.3862609863
0.3853149414
0.3859558105
0.3872070312
0.3865661621
0.3856201172
0.3859558105
0.3843383789
0.3843383789
0.3827819824
0.3830871582
0.3824462891
0.3827819824
0.383392334
0.3837280273
0.3827819824
0.383392334
0.3824462891
0.3830871582
0.3811950684
0.3815002441
0.3805541992
0.3805541992
0.3793029785
0.3796081543
0.3789672852
0.3793029785
0.3786315918
0.3789672852
0.378326416
0.3789672852
0.378326416
0.3789672852
0.3776855469
0.3776855469
0.378326416
0.3773803711
0.3780212402
0.3773803711
0.3793029785
0.3786315918
0.3799133301
0.3796081543
0.380859375
0.3802490234
0.3815002441
0.3811950684
0.3821411133
0.3818054199
0.3805541992
0.3802490234
0.380859375
0.3811950684
0.3799133301
0.3799133301
0.380859375
0.3802490234
0.3815002441
0.3815002441
0.3821411133
0.3818054199
0.380859375
0.380859375
0.3780212402
0.3780212402
0.375793457
0.3761291504
0.3729248047
0.3726196289
0.3700866699
0.3700866699
0.3719787598
0.3723144531
0.3754882812
0.3754882812
0.3789672852
0.3793029785
0.3824462891
0.3824462891
0.3837280273
0.383392334
0.3821411133
0.3824462891
0.378326416
0.3780212402
0.3726196289
0.3729248047
0.3710327148
0.3710327148
0.373260498
0.3729248047
0.3754882812
0.3751525879
0.3761291504
0.375793457
0.3770751953
0.3764343262
0.3773803711
0.3770751953
0.376739502
0.3770751953
0.3761291504
0.3761291504
0.3770751953
0.376739502
0.3773803711
0.376739502
0.3776855469
0.3770751953
0.3776855469
0.3770751953
0.3780212402
0.3773803711
0.378326416
0.3776855469
0.3786315918
0.378326416
0.3793029785
0.3789672852
0.3793029785
0.3793029785
0.378326416
0.3793029785
0.378326416
0.3793029785
0.3786315918
0.3789672852
0.3802490234
0.3799133301
0.3805541992
0.380859375
0.3799133301
0.380859375
0.3799133301
0.3799133301
0.3811950684
0.3805541992
0.3811950684
0.380859375
0.3799133301
0.3805541992
0.3789672852
0.3796081543
0.3780212402
0.3789672852
0.3780212402
0.3776855469
0.3754882812
0.3754882812
0.3748474121
0.3754882812
0.3745422363
0.3748474121
0.3764343262
0.376739502
0.3786315918
0.378326416
0.3761291504
0.375793457
0.3729248047
0.3729248047
0.3700866699
0.3704223633
0.3710327148
0.3704223633
0.3713684082
0.3713684082
0.3748474121
0.3751525879
0.3764343262
0.3764343262
0.3754882812
0.3754882812
0.3764343262
0.375793457
0.376739502
0.376739502
0.378326416
0.3786315918
0.3805541992
0.3802490234
0.3818054199
0.3811950684
0.3818054199
0.3811950684
0.3802490234
0.3802490234
0.3786315918
0.3789672852
0.3780212402
0.3786315918
0.3776855469
0.3786315918
0.3773803711
0.3780212402
0.3770751953
0.3776855469
0.376739502
0.376739502
0.3761291504
0.375793457
0.376739502
0.3764343262
0.3770751953
0.376739502
0.3776855469
0.376739502
0.3773803711
0.3770751953
0.3776855469
0.3776855469
0.3793029785
0.3793029785
0.3805541992
0.3802490234
0.380859375
0.3805541992
0.3789672852
0.3789672852
0.3776855469
0.3780212402
0.3764343262
0.376739502
0.375793457
0.3754882812
0.3764343262
0.3761291504
0.3770751953
0.376739502
0.3761291504
0.376739502
0.3780212402
0.3776855469
0.378326416
0.3776855469
0.3786315918
0.3776855469
0.3786315918
0.378326416
0.3789672852
0.3789672852
0.3796081543
0.3793029785
0.3802490234
0.3796081543
0.3802490234
0.3799133301
0.3805541992
0.3799133301
0.3805541992
0.3802490234
0.3793029785
0.3802490234
0.3793029785
0.3793029785
0.3780212402
0.3780212402
0.3789672852
0.3786315918
0.3799133301
0.3799133301
0.3815002441
0.3815002441
0.3840332031
0.3840332031
0.3872070312
0.3869018555
0.3881530762
0.3878479004
0.3887939453
0.3887939453
0.3878479004
0.3884887695
0.3872070312
0.3872070312
0.3853149414
0.3856201172
0.3837280273
0.3837280273
0.3850097656
0.3843383789
0.3853149414
0.3843383789
0.3846740723
0.3850097656
0.383392334
0.3837280273
0.3827819824
0.3830871582
0.3818054199
0.3821411133
0.383392334
0.3830871582
0.3843383789
0.3840332031
0.3853149414
0.3856201172
0.3865661621
0.3865661621
0.3856201172
0.3859558105
0.3824462891
0.3821411133
0.3789672852
0.378326416
0.3745422363
0.3745422363
0.3726196289
0.3729248047
0.3688354492
0.3684997559
0.364074707
0.364074707
0.3609008789
0.3609008789
0.3637390137
0.3637390137
0.3678894043
0.3681945801
0.3726196289
0.3726196289
0.3764343262
0.3764343262
0.380859375
0.3805541992
0.3837280273
0.3837280273
0.3850097656
0.3850097656
0.3846740723
0.3846740723
0.3853149414
0.3846740723
0.3853149414
0.3843383789
0.3850097656
0.3840332031
0.3859558105
0.3859558105
0.3995666504
0.4002075195
0.4144897461
0.4151000977
0.4328613281
0.433807373
0.4588623047
0.4601135254
0.4801025391
0.4712219238
0.3475952148
0.3409118652
0.2138061523
0.2169799805
0.3399658203
0.3590087891
0.5178222656
0.3390197754
-0.09655761719
-0.003356933594
0.3380737305
0.3482055664
0.4423522949
0.4449157715
0.4696350098
0.4686889648
0.4556884766
0.4550476074
0.4401550293
0.4398193359
0.4265136719
0.4259033203
0.4128723145
0.4125671387
0.4071655273
0.4071655273
0.4059143066
0.4062194824
0.4068603516
0.4065551758
0.4081115723
0.4081115723
0.4119262695
0.4119262695
0.4233398438
0.4239807129
0.4432983398
0.4648742676
0.4049682617
0.3929138184
0.3171386719
0.3117675781
0.3282470703
0.3304748535
0.3647155762
0.3653259277
0.3916625977
0.3929138184
0.4166870117
0.4173278809
0.4316101074
0.4319152832
0.4395141602
0.4423522949
0.438873291
0.4382629395
0.3704223633
0.365020752
0.2661132812
0.2642211914
0.2854309082
0.2876586914
0.3406066895
0.3424987793
0.3837280273
0.3846740723
0.4046325684
0.4049682617
0.4093933105
0.4097290039
0.4075012207
0.4075012207
0.4036865234
0.4033813477
0.396697998
0.3960876465
0.3894348145
0.3894348145
0.3846740723
0.3843383789
0.3926086426
0.3919677734
0.3780212402
0.378326416
0.3811950684
0.3815002441
0.3856201172
0.3856201172
0.3916625977
0.3919677734
0.3941955566
0.3935546875
0.3913269043
0.3913269043
0.3856201172
0.3853149414
0.376739502
0.3764343262
0.3697814941
0.369140625
0.3678894043
0.3681945801
0.3707275391
0.3704223633
0.373260498
0.373260498
0.3748474121
0.3748474121
0.376739502
0.376739502
0.3773803711
0.3773803711
0.378326416
0.3773803711
0.3786315918
0.3786315918
0.3773803711
0.3776855469
0.3770751953
0.3773803711
0.375793457
0.375793457
0.376739502
0.3764343262
0.3770751953
0.3761291504
0.3770751953
0.3761291504
0.376739502
0.3764343262
0.3748474121
0.3751525879
0.3735961914
0.374206543
0.373260498
0.3735961914
0.3748474121
0.3748474121
0.376739502
0.3770751953
0.3786315918
0.3780212402
0.3824462891
0.3989257812
0.3824462891
0.3862609863
0.3865661621
0.3856201172
0.3859558105
0.3843383789
0.3843383789
0.3735961914
0.3729248047
0.3583679199
0.357421875
0.3412475586
0.3393554688
0.3415527344
0.3415527344
0.3517150879
0.3523254395
0.3656616211
0.3662719727
0.375793457
0.3764343262
0.3827819824
0.3827819824
0.3846740723
0.3850097656
0.383392334
0.3837280273
0.3811950684
0.3811950684
0.3793029785
0.3789672852
0.3799133301
0.3793029785
0.3802490234
0.3799133301
0.3815002441
0.3815002441
0.3830871582
0.3827819824
0.3837280273
0.3837280273
0.3850097656
0.3846740723
0.3853149414
0.3843383789
0.3853149414
0.3850097656
0.3840332031
0.3840332031
0.3846740723
0.3840332031
0.3827819824
0.3830871582
0.3821411133
0.3824462891
0.3815002441
0.3821411133
0.3815002441
0.3818054199
0.3811950684
0.3818054199
0.380859375
0.3818054199
0.3827819824
0.3821411133
0.3827819824
0.3827819824
0.3830871582
0.383392334
0.3824462891
0.3830871582
0.3824462891
0.3824462891
0.3818054199
0.3815002441
0.3827819824
0.3824462891
0.3837280273
0.3837280273
0.383392334
0.3837280273
0.3840332031
0.3837280273
0.3850097656
0.3846740723
0.3862609863
0.3865661621
0.3884887695
0.3887939453
0.3903808594
0.390045166
0.3910217285
0.3907165527
0.3894348145
0.3897399902
0.3890991211
0.3897399902
0.3887939453
0.3884887695
0.3897399902
0.3897399902
0.3878479004
0.387512207
0.3821411133
0.3821411133
0.3773803711
0.3773803711
0.3710327148
0.3710327148
0.3653259277
0.3653259277
0.3637390137
0.364074707
0.362487793
0.362487793
0.3609008789
0.3612060547
0.3637390137
0.364074707
0.3675537109
0.3672180176
0.3710327148
0.3710327148
0.374206543
0.3745422363
0.3761291504
0.3764343262
0.3776855469
0.3773803711
0.3764343262
0.3764343262
0.3748474121
0.3748474121
0.375793457
0.3761291504
0.3773803711
0.376739502
0.3780212402
0.376739502
0.3776855469
0.3770751953
0.3786315918
0.3786315918
0.3815002441
0.3811950684
0.3821411133
0.3815002441
0.3824462891
0.3824462891
0.3815002441
0.3818054199
0.3811950684
0.3815002441
0.3821411133
0.3818054199
0.383392334
0.3827819824
0.3837280273
0.3830871582
0.3840332031
0.3837280273
0.3846740723
0.3843383789
0.3850097656
0.3850097656
0.3843383789
0.3846740723
0.3837280273
0.3837280273
0.3811950684
0.3811950684
0.376739502
0.376739502
0.3719787598
0.371673584
0.3675537109
0.3675537109
0.3643798828
0.364074707
0.3631286621
0.3631286621
0.3653259277
0.3653259277
0.3678894043
0.3678894043
0.3713684082
0.371673584
0.3745422363
0.374206543
0.3780212402
0.378326416
0.3815002441
0.3815002441
0.3827819824
0.3827819824
0.3837280273
0.3830871582
0.3840332031
0.3837280273
0.3827819824
0.3827819824
0.3837280273
0.383392334
0.3821411133
0.3821411133
0.3830871582
0.383392334
0.3821411133
0.3821411133
0.3793029785
0.3789672852
0.3776855469
0.3780212402
0.3793029785
0.3793029785
0.3799133301
0.3796081543
0.3811950684
0.380859375
0.3818054199
0.3815002441
0.3821411133
0.3821411133
0.3830871582
0.3830871582
0.3824462891
0.3830871582
0.3824462891
0.3821411133
0.3830871582
0.3827819824
0.3821411133
0.3818054199
0.3827819824
0.3821411133
0.3815002441
0.3818054199
0.3824462891
0.3818054199
0.3830871582
0.3821411133
0.3827819824
0.3824462891
0.3821411133
0.3818054199
0.3827819824
0.3824462891
0.3818054199
0.3818054199
0.3827819824
0.3824462891
0.3830871582
0.3827819824
0.3837280273
0.3837280273
0.3830871582
0.383392334
0.3843383789
0.3840332031
0.383392334
0.3837280273
0.3827819824
0.3830871582
0.3821411133
0.3827819824
0.3922729492
0.3929138184
0.4097290039
0.4103393555
0.4296875
0.4309387207
0.4547119141
0.4559936523
0.490234375
0.4937133789
0.4382629395
0.432220459
0.2619934082
0.2280883789
0.3415527344
0.3257141113
0.5263671875
0.5270080566
-0.09368896484
-0.1063842773
0.1634216309
0.1808166504
0.4252319336
0.4274597168
0.4886474609
0.490234375
0.5076904297
0.5105285645
0.383392334
0.378326416
0.3367919922
0.3339538574
0.3513793945
0.3529663086
0.3719787598
0.3729248047
0.4011535645
0.402130127
0.423034668
0.4236755371
0.4401550293
0.4407958984
0.4522094727
0.4556884766
0.4445800781
0.4423522949
0.3434448242
0.3384094238
0.2778320312
0.2781677246
0.316192627
0.3187255859
0.3723144531
0.374206543
0.408782959
0.4097290039
0.4208068848
0.4217529297
0.4166870117
0.4160461426
0.4040222168
0.4033813477
0.3919677734
0.3919677734
0.387512207
0.3878479004
0.3869018555
0.3872070312
0.3865661621
0.387512207
0.3865661621
0.3872070312
0.3878479004
0.3872070312
0.3859558105
0.3869018555
0.3837280273
0.3837280273
0.3805541992
0.3811950684
0.3776855469
0.3773803711
0.3735961914
0.3735961914
0.3713684082
0.3710327148
0.3700866699
0.3704223633
0.371673584
0.371673584
0.3745422363
0.374206543
0.376739502
0.376739502
0.3789672852
0.3789672852
0.3815002441
0.3818054199
0.3840332031
0.3840332031
0.3853149414
0.3850097656
0.3856201172
0.3853149414
0.3843383789
0.3850097656
0.383392334
0.3840332031
0.3824462891
0.3824462891
0.3805541992
0.3805541992
0.3793029785
0.3793029785
0.3770751953
0.376739502
0.3729248047
0.3726196289
0.3697814941
0.3697814941
0.3684997559
0.3684997559
0.366607666
0.366607666
0.3678894043
0.3675537109
0.3700866699
0.3700866699
0.3723144531
0.3723144531
0.3754882812
0.3754882812
0.3773803711
0.3770751953
0.3796081543
0.3793029785
0.3805541992
0.3805541992
0.3799133301
0.3802490234
0.380859375
0.3805541992
0.3815002441
0.3811950684
0.3821411133
0.3821411133
0.3827819824
0.3821411133
0.3811950684
0.3811950684
0.3802490234
0.380859375
0.3799133301
0.3799133301
0.3793029785
0.3789672852
0.3799133301
0.3796081543
0.3805541992
0.3799133301
0.380859375
0.380859375
0.3805541992
0.3815002441
0.3805541992
0.3805541992
0.380859375
0.380859375
0.3818054199
0.3811950684
0.3818054199
0.3811950684
0.3818054199
0.3811950684
0.3818054199
0.3811950684
0.3818054199
0.3818054199
0.3815002441
0.3818054199
0.380859375
0.3815002441
0.380859375
0.3815002441
0.3802490234
0.3805541992
0.3793029785
0.3793029785
0.3786315918
0.3786315918
0.3773803711
0.3770751953
0.3776855469
0.3770751953
0.3776855469
0.3776855469
0.3770751953
0.3780212402
0.376739502
0.376739502
0.3773803711
0.376739502
0.375793457
0.375793457
0.3745422363
0.3751525879
0.3745422363
0.3745422363
0.375793457
0.3754882812
0.3764343262
0.3764343262
0.3773803711
0.3770751953
0.3793029785
0.3793029785
0.3824462891
0.3824462891
0.3853149414
0.3850097656
0.3859558105
0.3859558105
0.3846740723
0.3846740723
0.383392334
0.3837280273
0.3815002441
0.3811950684
0.3786315918
0.3786315918
0.3773803711
0.3773803711
0.376739502
0.3770751953
0.3764343262
0.3770751953
0.375793457
0.3751525879
0.3764343262
0.3761291504
0.3786315918
0.378326416
0.3799133301
0.3799133301
0.380859375
0.3805541992
0.3811950684
0.3805541992
0.3799133301
0.3802490234
0.3811950684
0.3815002441
0.3846740723
0.3846740723
0.3869018555
0.3865661621
0.3881530762
0.3887939453
0.3865661621
0.3862609863
0.374206543
0.3739013672
0.3561401367
0.3551940918
0.3393554688
0.3364868164
0.3393554688
0.3396606445
0.3504333496
0.350769043
0.365020752
0.3653259277
0.374206543
0.3748474121
0.3818054199
0.3821411133
0.3859558105
0.3862609863
0.3853149414
0.3856201172
0.3865661621
0.3859558105
0.3865661621
0.3865661621
0.3884887695
0.3884887695
0.3894348145
0.3887939453
0.3894348145
0.3887939453
0.3869018555
0.3869018555
0.383392334
0.383392334
0.3773803711
0.3770751953
0.3704223633
0.3697814941
0.3659667969
0.3662719727
0.3678894043
0.3672180176
0.3700866699
0.3704223633
0.373260498
0.373260498
0.3761291504
0.3761291504
0.378326416
0.3780212402
0.3799133301
0.3793029785
0.3818054199
0.3815002441
0.3830871582
0.383392334
0.3824462891
0.3827819824
0.3805541992
0.3802490234
0.3780212402
0.3780212402
0.3761291504
0.376739502
0.3761291504
0.375793457
0.3764343262
0.3761291504
0.376739502
0.376739502
0.3761291504
0.3764343262
0.3776855469
0.3773803711
0.378326416
0.3780212402
0.3793029785
0.3796081543
0.3789672852
0.3793029785
0.380859375
0.3802490234
0.3824462891
0.3821411133
0.3837280273
0.383392334
0.3846740723
0.3846740723
0.3837280273
0.3837280273
0.3818054199
0.3818054199
0.3805541992
0.380859375
0.3799133301
0.3799133301
0.3789672852
0.3793029785
0.3780212402
0.3786315918
0.3773803711
0.3780212402
0.3793029785
0.3789672852
0.3805541992
0.3805541992
0.3824462891
0.3821411133
0.3837280273
0.3837280273
0.3840332031
0.3840332031
0.383392334
0.3840332031
0.3830871582
0.3830871582
0.3815002441
0.3815002441
0.3802490234
0.3802490234
0.3796081543
0.3799133301
0.3805541992
0.3805541992
0.3799133301
0.3802490234
0.3793029785
0.3799133301
0.3793029785
0.3796081543
0.3802490234
0.3796081543
0.380859375
0.380859375
0.3805541992
0.380859375
0.3802490234
0.3805541992
0.3793029785
0.3793029785
0.3802490234
0.3802490234
0.3796081543
0.3796081543
0.3805541992
0.3802490234
0.3793029785
0.3802490234
0.3786315918
0.3793029785
0.3776855469
0.3780212402
0.375793457
0.375793457
0.376739502
0.376739502
0.3780212402
0.3780212402
0.3796081543
0.3796081543
0.3827819824
0.3830871582
0.3964233398
0.3973693848
0.4147949219
0.4157409668
0.4385681152
0.4395141602
0.4671020508
0.4683532715
0.5016479492
0.5007019043
0.4068603516
0.3999023438
0.242980957
0.2398071289
0.3475952148
0.2829284668
0.544128418
0.496887207
-0.06326293945
-0.01284790039
0.2825927734
0.2984619141
0.4769287109
0.4813537598
0.5542907715
0.5504760742
0.4040222168
0.4014587402
0.3770751953
0.3793029785
0.3979797363
0.3973693848
0.3907165527
0.3957519531
0.4068603516
0.4071655273
0.4185791016
0.4192199707
0.4265136719
0.4268493652
0.4303283691
0.4293823242
0.3796081543
0.376739502
0.2610473633
0.2578735352
0.2461547852
0.2559509277
0.30859375
0.3108215332
0.3555297852
0.3570861816
0.380859375
0.3818054199
0.3910217285
0.3913269043
0.3941955566
0.3941955566
0.3960876465
0.3957519531
0.396697998
0.396697998
0.3941955566
0.3941955566
0.3913269043
0.3916625977
0.390045166
0.3907165527
0.3897399902
0.3897399902
0.3903808594
0.3907165527
0.390045166
0.3907165527
0.390045166
0.3903808594
0.3894348145
0.390045166
0.3887939453
0.3890991211
0.387512207
0.3878479004
0.3865661621
0.3862609863
0.3872070312
0.3862609863
0.3869018555
0.3869018555
0.3856201172
0.3859558105
0.3850097656
0.3850097656
0.3862609863
0.3856201172
0.3865661621
0.3859558105
0.3865661621
0.3862609863
0.3853149414
0.3853149414
0.3837280273
0.3830871582
0.3840332031
0.3840332031
0.383392334
0.3837280273
0.3827819824
0.3837280273
0.3827819824
0.3830871582
0.3824462891
0.383392334
0.3824462891
0.3830871582
0.3824462891
0.3827819824
0.3818054199
0.3821411133
0.3815002441
0.3818054199
0.3811950684
0.3811950684
0.3802490234
0.3805541992
0.3793029785
0.3799133301
0.3789672852
0.3789672852
0.3796081543
0.3789672852
0.3796081543
0.3789672852
0.3796081543
0.3789672852
0.3796081543
0.3793029785
0.3802490234
0.3802490234
0.3793029785
0.3793029785
0.3796081543
0.3796081543
0.3793029785
0.3793029785
0.3799133301
0.3796081543
0.3802490234
0.3802490234
0.3811950684
0.3815002441
0.3805541992
0.3811950684
0.3802490234
0.3805541992
0.3811950684
0.380859375
0.3821411133
0.3818054199
0.3824462891
0.3821411133
0.3811950684
0.3811950684
0.3786315918
0.3786315918
0.3748474121
0.3745422363
0.3713684082
0.371673584
0.3707275391
0.3710327148
0.3719787598
0.3713684082
0.3704223633
0.3710327148
0.3729248047
0.3729248047
0.3745422363
0.3748474121
0.3789672852
0.3789672852
0.3811950684
0.3805541992
0.3811950684
0.3805541992
0.3799133301
0.3799133301
0.3793029785
0.3789672852
0.3796081543
0.3786315918
0.3793029785
0.3789672852
0.3799133301
0.3799133301
0.3793029785
0.3789672852
0.380859375
0.3799133301
0.3815002441
0.3815002441
0.3830871582
0.3827819824
0.3824462891
0.3827819824
0.3811950684
0.3811950684
0.3799133301
0.3799133301
0.3786315918
0.3786315918
0.3796081543
0.3796081543
0.3805541992
0.3802490234
0.3815002441
0.3815002441
0.3827819824
0.3827819824
0.3846740723
0.3846740723
0.3869018555
0.3865661621
0.3872070312
0.3872070312
0.3859558105
0.3859558105
0.3843383789
0.3843383789
0.3853149414
0.3850097656
0.3843383789
0.3840332031
0.3815002441
0.3811950684
0.3789672852
0.3793029785
0.3776855469
0.3773803711
0.3793029785
0.3796081543
0.3776855469
0.3776855469
0.3748474121
0.3748474121
0.3723144531
0.3723144531
0.3710327148
0.3710327148
0.3723144531
0.3723144531
0.3745422363
0.3745422363
0.3729248047
0.3726196289
0.371673584
0.3713684082
0.3719787598
0.371673584
0.3729248047
0.3729248047
0.3719787598
0.3723144531
0.3729248047
0.3729248047
0.3739013672
0.3739013672
0.3754882812
0.3754882812
0.3764343262
0.375793457
0.3770751953
0.376739502
0.3770751953
0.3770751953
0.3780212402
0.3780212402
0.378326416
0.378326416
0.3793029785
0.3789672852
0.3793029785
0.3789672852
0.3799133301
0.3796081543
0.3786315918
0.3793029785
0.3799133301
0.3796081543
0.3793029785
0.3799133301
0.3789672852
0.3789672852
0.3780212402
0.3786315918
0.3770751953
0.3776855469
0.3764343262
0.3770751953
0.375793457
0.3754882812
0.376739502
0.376739502
0.3776855469
0.3776855469
0.3789672852
0.3789672852
0.3796081543
0.3793029785
0.3802490234
0.3802490234
0.3796081543
0.3802490234
0.3789672852
0.3989257812
0.3796081543
0.378326416
0.3786315918
0.3793029785
0.3796081543
0.3786315918
0.3796081543
0.3802490234
0.3799133301
0.3793029785
0.3796081543
0.3789672852
0.3789672852
0.378326416
0.3786315918
0.3780212402
0.378326416
0.3773803711
0.3780212402
0.376739502
0.3773803711
0.376739502
0.3770751953
0.378326416
0.3780212402
0.3789672852
0.3793029785
0.3802490234
0.3802490234
0.380859375
0.3805541992
0.3799133301
0.3799133301
0.3793029785
0.3789672852
0.3796081543
0.3789672852
0.3780212402
0.378326416
0.3773803711
0.3773803711
0.3780212402
0.3776855469
0.3770751953
0.3776855469
0.3770751953
0.3773803711
0.3789672852
0.3789672852
0.3802490234
0.3802490234
0.3815002441
0.3815002441
0.3827819824
0.3827819824
0.3821411133
0.3827819824
0.3818054199
0.3815002441
0.3824462891
0.3821411133
0.3926086426
0.3935546875
0.408782959
0.4090881348
0.4296875
0.4306335449
0.4550476074
0.4563293457
0.492767334
0.4937133789
0.4198608398
0.4132080078
0.2477111816
0.2321777344
0.3970336914
0.3529663086
0.4778747559
0.4575805664
-0.1089172363
-0.0778503418
0.2026977539
0.2179260254
0.374206543
0.3399658203
0.4189147949
0.4211425781
0.4432983398
0.4430236816
0.4369812012
0.4366455078
0.4316101074
0.4312744141
0.420501709
0.4208068848
0.4157409668
0.415435791
0.4106750488
0.4106750488
0.4046325684
0.4043273926
0.3960876465
0.3954467773
0.3859558105
0.3859558105
0.3840332031
0.3850097656
0.3865661621
0.3862609863
0.3869018555
0.3869018555
0.3887939453
0.3881530762
0.3884887695
0.3881530762
0.3856201172
0.3862609863
0.383392334
0.383392334
0.3818054199
0.3818054199
0.3824462891
0.3821411133
0.3811950684
0.3815002441
0.380859375
0.380859375
0.3830871582
0.3827819824
0.3846740723
0.3843383789
0.3856201172
0.3856201172
0.3869018555
0.3865661621
0.3859558105
0.3862609863
0.3853149414
0.3862609863
0.3846740723
0.3853149414
0.3840332031
0.3840332031
0.3824462891
0.3821411133
0.383392334
0.3830871582
0.3853149414
0.3850097656
0.387512207
0.387512207
0.3897399902
0.390045166
0.3935546875
0.3935546875
0.3986206055
0.3989257812
0.4071655273
0.4075012207
0.4226989746
0.4236755371
0.4461669922
0.4452209473
0.3041687012
0.3025512695
0.2955932617
0.3032226562
0.3421936035
0.3431396484
0.3643798828
0.3656616211
0.3922729492
0.3929138184
0.4103393555
0.4109802246
0.4236755371
0.4239807129
0.4335021973
0.4335021973
0.3894348145
0.3865661621
0.2768859863
0.2737121582
0.2616577148
0.2705383301
0.3231811523
0.325378418
0.373260498
0.3745422363
0.3999023438
0.4005126953
0.4093933105
0.4103393555
0.4084472656
0.4084472656
0.4046325684
0.4043273926
0.3992614746
0.3989257812
0.3926086426
0.3995666504
0.3929138184
0.3926086426
0.3815002441
0.3818054199
0.3802490234
0.3802490234
0.3811950684
0.380859375
0.3815002441
0.3815002441
0.3805541992
0.380859375
0.3818054199
0.3818054199
0.383392334
0.383392334
0.3843383789
0.3840332031
0.3850097656
0.3853149414
0.3843383789
0.3850097656
0.3881530762
0.3878479004
0.3913269043
0.3913269043
0.3932189941
0.3932189941
0.3910217285
0.3910217285
0.3881530762
0.3878479004
0.3840332031
0.3837280273
0.3796081543
0.3796081543
0.3770751953
0.3773803711
0.376739502
0.376739502
0.3761291504
0.3764343262
0.375793457
0.375793457
0.3748474121
0.3745422363
0.3735961914
0.373260498
0.3723144531
0.371673584
0.3726196289
0.3719787598
0.3713684082
0.3719787598
0.373260498
0.373260498
0.371673584
0.3719787598
0.373260498
0.3729248047
0.3723144531
0.3726196289
0.376739502
0.376739502
0.380859375
0.3811950684
0.3840332031
0.3840332031
0.3862609863
0.3865661621
0.387512207
0.387512207
0.3881530762
0.3878479004
0.3884887695
0.3878479004
0.3887939453
0.3881530762
0.390045166
0.3903808594
0.3916625977
0.3916625977
0.3881530762
0.3881530762
0.3853149414
0.3853149414
0.3824462891
0.3824462891
0.380859375
0.3802490234
0.3815002441
0.3815002441
0.3830871582
0.3830871582
0.3846740723
0.3850097656
0.3878479004
0.3878479004
0.3884887695
0.3884887695
0.387512207
0.3878479004
0.3865661621
0.3862609863
0.3837280273
0.3837280273
0.3796081543
0.3796081543
0.3770751953
0.376739502
0.3754882812
0.375793457
0.3745422363
0.3748474121
0.3739013672
0.3739013672
0.3748474121
0.3748474121
0.3764343262
0.3764343262
0.3780212402
0.3780212402
0.3793029785
0.3793029785
0.3776855469
0.3773803711
0.3748474121
0.3745422363
0.3729248047
0.3729248047
0.374206543
0.3735961914
0.3751525879
0.3751525879
0.3786315918
0.3786315918
0.380859375
0.3805541992
0.3815002441
0.3815002441
0.380859375
0.3802490234
0.380859375
0.3799133301
0.3811950684
0.380859375
0.3818054199
0.3818054199
0.3805541992
0.3805541992
0.3773803711
0.3773803711
0.3761291504
0.3761291504
0.376739502
0.376739502
0.3776855469
0.3780212402
0.3776855469
0.3773803711
0.378326416
0.3773803711
0.375793457
0.375793457
0.3739013672
0.3745422363
0.3735961914
0.3735961914
0.373260498
0.3735961914
0.3751525879
0.3751525879
0.376739502
0.3764343262
0.3780212402
0.3780212402
0.3786315918
0.3786315918
0.3776855469
0.3780212402
0.3789672852
0.3789672852
0.3796081543
0.3789672852
0.3799133301
0.3799133301
0.380859375
0.3802490234
0.3811950684
0.3811950684
0.3821411133
0.3818054199
0.3830871582
0.3827819824
0.3840332031
0.3837280273
0.3843383789
0.3840332031
0.3853149414
0.3843383789
0.3799133301
0.3793029785
0.3745422363
0.3745422363
0.3723144531
0.3723144531
0.3710327148
0.3710327148
0.3704223633
0.3707275391
0.3723144531
0.3723144531
0.3729248047
0.3726196289
0.3719787598
0.3719787598
0.373260498
0.3729248047
0.3745422363
0.3739013672
0.3751525879
0.3745422363
0.3754882812
0.3748474121
0.375793457
0.3754882812
0.3761291504
0.3761291504
0.376739502
0.3770751953
0.3764343262
0.376739502
0.3776855469
0.3776855469
0.376739502
0.3773803711
0.3780212402
0.3786315918
0.3776855469
0.3786315918
0.3780212402
0.3789672852
0.3780212402
0.3776855469
0.3786315918
0.3789672852
0.378326416
0.378326416
0.3789672852
0.378326416
0.3802490234
0.3805541992
0.3938598633
0.3945007324
0.411315918
0.4119262695
0.4331665039
0.4341125488
0.4598083496
0.4613952637
0.4931030273
0.4915161133
0.4005126953
0.3935546875
0.2296447754
0.2236328125
0.3964233398
0.3415527344
0.506072998
0.4731140137
-0.0686340332
-0.01950073242
0.2635803223
0.2787780762
0.4214477539
0.3881530762
0.4436340332
0.4452209473
0.4525146484
0.4474487305
0.4309387207
0.4303283691
0.4166870117
0.4160461426
0.3999023438
0.3995666504
0.3938598633
0.3935546875
0.396697998
0.3970336914
0.4008483887
0.4008483887
0.4027404785
0.4014587402
0.3989257812
0.3986206055
0.3919677734
0.3916625977
0.3821411133
0.3818054199
0.3776855469
0.3773803711
0.3793029785
0.3793029785
0.3846740723
0.3850097656
0.3887939453
0.3894348145
0.3884887695
0.3884887695
0.3856201172
0.3853149414
0.3723144531
0.371673584
0.353302002
0.3520202637
0.3352050781
0.3348999023
0.3323669434
0.3339538574
0.3434448242
0.3441162109
0.3545532227
0.3551940918
0.3653259277
0.3659667969
0.371673584
0.371673584
0.3776855469
0.3780212402
0.3802490234
0.3805541992
0.3796081543
0.3802490234
0.3821411133
0.3818054199
0.383392334
0.3827819824
0.3853149414
0.3850097656
0.3878479004
0.3881530762
0.3913269043
0.3913269043
0.3935546875
0.3935546875
0.3941955566
0.3938598633
0.3951416016
0.3945007324
0.3960876465
0.396697998
0.3957519531
0.3957519531
0.3941955566
0.3945007324
0.3957519531
0.3957519531
0.3989257812
0.3989257812
0.4027404785
0.4027404785
0.4122619629
0.4128723145
0.4281005859
0.4293823242
0.4566345215
0.4569396973
0.3225402832
0.3209533691
0.3095397949
0.3158874512
0.3583679199
0.3596191406
0.3786315918
0.3799133301
0.4056091309
0.4062194824
0.4226989746
0.4233398438
0.4331665039
0.4335021973
0.4401550293
0.4404602051
0.4030761719
0.3992614746
0.2879943848
0.2838745117
0.2594604492
0.2635803223
0.313659668
0.3155822754
0.3647155762
0.3659667969
0.3932189941
0.3938598633
0.4046325684
0.4046325684
0.4068603516
0.4062194824
0.4030761719
0.4030761719
0.3973693848
0.3970336914
0.3907165527
0.396697998
0.3894348145
0.3884887695
0.3751525879
0.3751525879
0.3713684082
0.371673584
0.3704223633
0.3710327148
0.3700866699
0.3704223633
0.3697814941
0.3694458008
0.3710327148
0.3710327148
0.3729248047
0.3726196289
0.374206543
0.374206543
0.3770751953
0.376739502
0.3789672852
0.3789672852
0.3815002441
0.3815002441
0.3853149414
0.3853149414
0.387512207
0.3878479004
0.3869018555
0.3872070312
0.3856201172
0.3859558105
0.3837280273
0.3843383789
0.3850097656
0.3846740723
0.3853149414
0.3846740723
0.3859558105
0.3856201172
0.3862609863
0.3859558105
0.3843383789
0.3843383789
0.3821411133
0.3821411133
0.3799133301
0.3796081543
0.378326416
0.378326416
0.3770751953
0.3773803711
0.375793457
0.376739502
0.3754882812
0.375793457
0.3751525879
0.3754882812
0.3761291504
0.3761291504
0.3754882812
0.3754882812
0.3761291504
0.3761291504
0.3786315918
0.3786315918
0.3802490234
0.3805541992
0.3811950684
0.3815002441
0.3802490234
0.3799133301
0.3780212402
0.3780212402
0.376739502
0.3773803711
0.3764343262
0.376739502
0.3754882812
0.3754882812
0.3773803711
0.3773803711
0.3789672852
0.3789672852
0.3821411133
0.3821411133
0.383392334
0.3827819824
0.3818054199
0.3827819824
0.3818054199
0.3824462891
0.3818054199
0.3818054199
0.3827819824
0.3824462891
0.383392334
0.3830871582
0.3837280273
0.3827819824
0.3796081543
0.3793029785
0.3754882812
0.3751525879
0.3710327148
0.3713684082
0.3675537109
0.3675537109
0.365020752
0.3647155762
0.3653259277
0.3656616211
0.3688354492
0.3694458008
0.3751525879
0.3751525879
0.3793029785
0.3793029785
0.3811950684
0.3815002441
0.3827819824
0.3830871582
0.3821411133
0.3821411133
0.3830871582
0.3824462891
0.3830871582
0.3830871582
0.3824462891
0.3827819824
0.3818054199
0.3824462891
0.3818054199
0.3824462891
0.3818054199
0.3821411133
0.3827819824
0.3821411133
0.3830871582
0.3821411133
0.3830871582
0.3830871582
0.3824462891
0.3830871582
0.3818054199
0.3818054199
0.378326416
0.3786315918
0.376739502
0.3773803711
0.375793457
0.376739502
0.375793457
0.375793457
0.376739502
0.376739502
0.3789672852
0.3789672852
0.3811950684
0.3811950684
0.3818054199
0.3811950684
0.3815002441
0.3805541992
0.3818054199
0.3821411133
0.3830871582
0.3830871582
0.3840332031
0.383392334
0.3815002441
0.3815002441
0.3802490234
0.3799133301
0.3811950684
0.380859375
0.3818054199
0.3821411133
0.383392334
0.383392334
0.3843383789
0.3840332031
0.3850097656
0.3853149414
0.3846740723
0.3850097656
0.3811950684
0.380859375
0.3776855469
0.3789672852
0.3910217285
0.3916625977
0.4075012207
0.4084472656
0.4284057617
0.4290466309
0.4591674805
0.4607543945
0.4822998047
0.4747009277
0.3523254395
0.3456726074
0.2169799805
0.2176208496
0.357421875
0.3257141113
0.5346069336
0.4084472656
-0.09497070312
0.005218505859
0.3047790527
0.3158874512
0.4293823242
0.4325561523
0.4639282227
0.4632873535
0.449005127
0.4483947754
0.4319152832
0.4316101074
0.4166870117
0.4157409668
0.4027404785
0.4024047852
0.396697998
0.3964233398
0.3951416016
0.3957519531
0.3948059082
0.3954467773
0.3938598633
0.3938598633
0.3903808594
0.390045166
0.3827819824
0.3824462891
0.3729248047
0.3723144531
0.3659667969
0.3656616211
0.364074707
0.364074707
0.3659667969
0.3659667969
0.369140625
0.3688354492
0.3710327148
0.3710327148
0.3726196289
0.3726196289
0.3751525879
0.3751525879
0.3761291504
0.3754882812
0.3764343262
0.3764343262
0.3773803711
0.3770751953
0.378326416
0.3773803711
0.3786315918
0.378326416
0.3802490234
0.3799133301
0.3815002441
0.3811950684
0.3824462891
0.3824462891
0.3830871582
0.3827819824
0.3821411133
0.3818054199
0.3827819824
0.3821411133
0.3830871582
0.3827819824
0.3846740723
0.3840332031
0.3846740723
0.3843383789
0.3853149414
0.3843383789
0.3850097656
0.3850097656
0.3837280273
0.3840332031
0.3824462891
0.3821411133
0.3799133301
0.3799133301
0.3780212402
0.378326416
0.376739502
0.3770751953
0.3764343262
0.376739502
0.3761291504
0.376739502
0.375793457
0.3764343262
0.375793457
0.3761291504
0.3751525879
0.3751525879
0.3764343262
0.3764343262
0.3793029785
0.3793029785
0.3818054199
0.3818054199
0.383392334
0.3830871582
0.3840332031
0.3837280273
0.3830871582
0.383392334
0.3815002441
0.3815002441
0.3802490234
0.3802490234
0.3786315918
0.3793029785
0.3786315918
0.3786315918
0.3776855469
0.3773803711
0.378326416
0.3776855469
0.3789672852
0.3780212402
0.3793029785
0.3789672852
0.3799133301
0.3793029785
0.3799133301
0.3802490234
0.3793029785
0.3796081543
0.378326416
0.3786315918
0.376739502
0.376739502
0.3748474121
0.3745422363
0.3726196289
0.3729248047
0.371673584
0.3719787598
0.3726196289
0.3726196289
0.371673584
0.3719787598
0.3748474121
0.3748474121
0.3773803711
0.376739502
0.378326416
0.3780212402
0.3799133301
0.3793029785
0.3811950684
0.3811950684
0.3824462891
0.3821411133
0.3811950684
0.3811950684
0.3821411133
0.3824462891
0.3859558105
0.3859558105
0.3910217285
0.3910217285
0.3960876465
0.3964233398
0.3983154297
0.3979797363
0.3989257812
0.3989257812
0.4005126953
0.4005126953
0.4036865234
0.4043273926
0.4170227051
0.4176330566
0.44140625
0.4569396973
0.3618469238
0.3558044434
0.3120727539
0.3063659668
0.3327026367
0.3352050781
0.3634338379
0.3989257812
0.3647155762
0.3926086426
0.3938598633
0.4151000977
0.4157409668
0.4303283691
0.4309387207
0.4404602051
0.4426879883
0.4350891113
0.433807373
0.3409118652
0.3342590332
0.2553405762
0.2543945312
0.2803955078
0.2825927734
0.3348999023
0.3367919922
0.374206543
0.3751525879
0.3929138184
0.3935546875
0.4005126953
0.4005126953
0.402130127
0.4017944336
0.4040222168
0.4046325684
0.4036865234
0.4027404785
0.4116210938
0.4109802246
0.3960876465
0.3970336914
0.3957519531
0.3957519531
0.3954467773
0.3954467773
0.3932189941
0.3929138184
0.3890991211
0.3890991211
0.3846740723
0.3843383789
0.3824462891
0.3830871582
0.3846740723
0.3846740723
0.3856201172
0.3853149414
0.3859558105
0.3856201172
0.3793029785
0.3786315918
0.3637390137
0.3627929688
0.3450622559
0.3444213867
0.3371276855
0.3371276855
0.3447265625
0.3453674316
0.359954834
0.3605651855
0.3761291504
0.3764343262
0.3881530762
0.3884887695
0.3945007324
0.3948059082
0.396697998
0.3970336914
0.3960876465
0.3964233398
0.3954467773
0.3954467773
0.3951416016
0.3951416016
0.3957519531
0.3957519531
0.3951416016
0.3954467773
0.3945007324
0.3945007324
0.3926086426
0.3929138184
0.3907165527
0.3910217285
0.3884887695
0.3887939453
0.3872070312
0.387512207
0.3856201172
0.3856201172
0.3840332031
0.3843383789
0.3824462891
0.3830871582
0.3815002441
0.3821411133
0.3805541992
0.380859375
0.3796081543
0.3796081543
0.378326416
0.378326416
0.3748474121
0.3748474121
0.3739013672
0.3735961914
0.3748474121
0.3745422363
0.3754882812
0.3751525879
0.3754882812
0.3754882812
0.3761291504
0.3761291504
0.3754882812
0.375793457
0.376739502
0.376739502
0.3776855469
0.3773803711
0.378326416
0.378326416
0.3789672852
0.3786315918
0.3796081543
0.3793029785
0.3786315918
0.3786315918
0.3773803711
0.3770751953
0.3776855469
0.376739502
0.3776855469
0.3770751953
0.378326416
0.3773803711
0.3780212402
0.378326416
0.3773803711
0.3770751953
0.378326416
0.3776855469
0.3786315918
0.378326416
0.3796081543
0.3799133301
0.3789672852
0.3793029785
0.378326416
0.3789672852
0.376739502
0.3776855469
0.3761291504
0.3764343262
0.3754882812
0.3754882812
0.3745422363
0.3751525879
0.374206543
0.3745422363
0.3754882812
0.3748474121
0.3770751953
0.3770751953
0.3780212402
0.3776855469
0.3770751953
0.3770751953
0.3776855469
0.3773803711
0.3786315918
0.3786315918
0.3773803711
0.3773803711
0.3751525879
0.3751525879
0.375793457
0.3754882812
0.3770751953
0.376739502
0.3786315918
0.3786315918
0.3802490234
0.3802490234
0.3821411133
0.3824462891
0.3853149414
0.3856201172
0.3884887695
0.3884887695
0.3913269043
0.3907165527
0.3919677734
0.3913269043
0.390045166
0.3903808594
0.3894348145
0.3890991211
0.3910217285
0.3910217285
0.3903808594
0.3910217285
0.3884887695
0.3884887695
0.3853149414
0.3850097656
0.3843383789
0.3843383789
0.3830871582
0.3827819824
0.380859375
0.3805541992
0.3799133301
0.3799133301
0.375793457
0.3754882812
0.3675537109
0.3653259277
0.3675537109
0.3678894043
0.3862609863
0.3869018555
0.4093933105
0.4103393555
0.4360351562
0.4373168945
0.4671020508
0.4686889648
0.4962768555
0.4934082031
0.3856201172
0.378326416
0.2302856445
0.2290344238
0.3612060547
0.304473877
0.5010070801
0.4411010742
-0.1361694336
-0.02935791016
0.3025512695
0.3155822754
0.4208068848
0.4211425781
0.449005127
0.4518737793
0.445526123
0.4449157715
0.4299926758
0.4293823242
0.4160461426
0.4151000977
0.4027404785
0.402130127
0.3964233398
0.3964233398
0.3941955566
0.3945007324
0.3922729492
0.3922729492
0.3903808594
0.3907165527
0.3894348145
0.3894348145
0.3884887695
0.3884887695
0.3869018555
0.3869018555
0.3837280273
0.3837280273
0.3815002441
0.3811950684
0.3776855469
0.3773803711
0.375793457
0.375793457
0.373260498
0.3729248047
0.3723144531
0.3723144531
0.373260498
0.3726196289
0.371673584
0.371673584
0.3704223633
0.3700866699
0.3707275391
0.3700866699
0.3710327148
0.3700866699
0.3729248047
0.3729248047
0.3751525879
0.3748474121
0.3761291504
0.3764343262
0.3773803711
0.3773803711
0.3770751953
0.3770751953
0.3761291504
0.376739502
0.3773803711
0.3773803711
0.3764343262
0.3764343262
0.3773803711
0.376739502
0.3776855469
0.3776855469
0.3780212402
0.3780212402
0.3786315918
0.378326416
0.3796081543
0.3793029785
0.3802490234
0.3796081543
0.3811950684
0.3811950684
0.3818054199
0.3818054199
0.383392334
0.3830871582
0.3824462891
0.3824462891
0.3815002441
0.3815002441
0.380859375
0.3811950684
0.3805541992
0.3815002441
0.3805541992
0.3815002441
0.3805541992
0.3805541992
0.3811950684
0.380859375
0.3818054199
0.3821411133
0.3837280273
0.383392334
0.3853149414
0.3853149414
0.3865661621
0.3862609863
0.3872070312
0.3869018555
0.3878479004
0.3878479004
0.3869018555
0.3869018555
0.3853149414
0.3850097656
0.3837280273
0.3840332031
0.3830871582
0.3837280273
0.3830871582
0.3840332031
0.3824462891
0.3827819824
0.3811950684
0.3818054199
0.3805541992
0.380859375
0.3796081543
0.3796081543
0.378326416
0.378326416
0.375793457
0.375793457
0.3735961914
0.3739013672
0.3729248047
0.3735961914
0.3748474121
0.3748474121
0.3770751953
0.3770751953
0.3780212402
0.3780212402
0.3802490234
0.3802490234
0.3811950684
0.3811950684
0.3802490234
0.3802490234
0.3789672852
0.3786315918
0.3780212402
0.3780212402
0.3799133301
0.3799133301
0.3811950684
0.3811950684
0.3805541992
0.3815002441
0.3846740723
0.3850097656
0.3929138184
0.3932189941
0.4014587402
0.402130127
0.4147949219
0.415435791
0.4360351562
0.4547119141
0.3802490234
0.3707275391
0.3124084473
0.3079528809
0.3279418945
0.3298339844
0.3618469238
0.362487793
0.3897399902
0.3910217285
0.4138183594
0.4144897461
0.4312744141
0.4319152832
0.4404602051
0.4442749023
0.4404602051
0.4395141602
0.3653259277
0.3593139648
0.2677001953
0.2654724121
0.2851257324
0.2873535156
0.3418884277
0.3441162109
0.3830871582
0.3843383789
0.4030761719
0.4030761719
0.4075012207
0.4075012207
0.4049682617
0.4049682617
0.4008483887
0.4008483887
0.3957519531
0.3932189941
0.3995666504
0.4002075195
0.3856201172
0.3846740723
0.3830871582
0.3830871582
0.3843383789
0.3843383789
0.3850097656
0.3846740723
0.3840332031
0.3843383789
0.3824462891
0.3830871582
0.3821411133
0.3821411133
0.380859375
0.3811950684
0.3796081543
0.3799133301
0.3793029785
0.3793029785
0.3799133301
0.3789672852
0.3799133301
0.3796081543
0.3786315918
0.3789672852
0.3776855469
0.3773803711
0.3761291504
0.3764343262
0.375793457
0.3761291504
0.3776855469
0.3773803711
0.3780212402
0.3776855469
0.3770751953
0.3770751953
0.3764343262
0.3770751953
0.3764343262
0.3761291504
0.376739502
0.375793457
0.376739502
0.3764343262
0.378326416
0.3780212402
0.3789672852
0.3786315918
0.3805541992
0.3802490234
0.3824462891
0.3818054199
0.3850097656
0.3853149414
0.387512207
0.3872070312
0.3862609863
0.3859558105
0.3840332031
0.3843383789
0.3827819824
0.3827819824
0.3818054199
0.3815002441
0.3824462891
0.3821411133
0.3811950684
0.3815002441
0.3799133301
0.3802490234
0.3786315918
0.3789672852
0.3780212402
0.378326416
0.3770751953
0.3776855469
0.376739502
0.376739502
0.3776855469
0.3776855469
0.3786315918
0.3780212402
0.3786315918
0.3786315918
0.3780212402
0.3780212402
0.3773803711
0.3780212402
0.376739502
0.376739502
0.3751525879
0.3748474121
0.3754882812
0.3751525879
0.3761291504
0.3764343262
0.375793457
0.3761291504
0.3773803711
0.376739502
0.3773803711
0.3770751953
0.3773803711
0.3776855469
0.376739502
0.3773803711
0.376739502
0.3773803711
0.378326416
0.378326416
0.3802490234
0.3799133301
0.3815002441
0.3811950684
0.3815002441
0.3818054199
0.3821411133
0.3815002441
0.3821411133
0.3824462891
0.3811950684
0.3815002441
0.3818054199
0.3815002441
0.3796081543
0.3799133301
0.3780212402
0.378326416
0.3764343262
0.3764343262
0.3739013672
0.3735961914
0.3707275391
0.3704223633
0.371673584
0.3713684082
0.3729248047
0.3729248047
0.3764343262
0.3764343262
0.3815002441
0.3818054199
0.3897399902
0.390045166
0.396697998
0.3970336914
0.4024047852
0.4027404785
0.3979797363
0.3976745605
0.3926086426
0.3922729492
0.3850097656
0.3824462891
0.3872070312
0.3878479004
0.4141540527
0.4157409668
0.4632873535
0.4677429199
0.4163818359
0.4100341797
0.2502441406
0.2274169922
0.3612060547
0.3028869629
0.5390625
0.5305175781
-0.08544921875
-0.08227539062
0.1897277832
0.2062072754
0.4093933105
0.411315918
0.4712219238
0.474395752
0.4692993164
0.4686889648
0.4515686035
0.4512329102
0.4360351562
0.4350891113
0.4138183594
0.4132080078
0.4033813477
0.4030761719
0.3992614746
0.3989257812
0.3964233398
0.3960876465
0.3884887695
0.3878479004
0.3811950684
0.3805541992
0.3773803711
0.3776855469
0.3770751953
0.3773803711
0.3764343262
0.3773803711
0.3789672852
0.3786315918
0.3799133301
0.3793029785
0.378326416
0.378326416
0.3802490234
0.3802490234
0.3818054199
0.3815002441
0.3827819824
0.3824462891
0.3840332031
0.3837280273
0.3850097656
0.3846740723
0.3837280273
0.383392334
0.3821411133
0.3824462891
0.3811950684
0.3815002441
0.380859375
0.3815002441
0.3796081543
0.3796081543
0.375793457
0.375793457
0.3710327148
0.3710327148
0.3681945801
0.3681945801
0.3669128418
0.3669128418
0.3653259277
0.3656616211
0.3672180176
0.3675537109
0.3694458008
0.3697814941
0.3764343262
0.376739502
0.3815002441
0.3815002441
0.3840332031
0.3840332031
0.3853149414
0.3850097656
0.3840332031
0.3843383789
0.3830871582
0.3837280273
0.3821411133
0.3818054199
0.3805541992
0.3799133301
0.3805541992
0.380859375
0.3821411133
0.3818054199
0.383392334
0.3830871582
0.3840332031
0.3837280273
0.3843383789
0.3840332031
0.3824462891
0.3827819824
0.3805541992
0.380859375
0.3789672852
0.3786315918
0.3793029785
0.3789672852
0.3802490234
0.3796081543
0.3811950684
0.3811950684
0.3827819824
0.3824462891
0.3830871582
0.3827819824
0.3840332031
0.3837280273
0.3824462891
0.3830871582
0.3815002441
0.3815002441
0.3824462891
0.3821411133
0.3830871582
0.383392334
0.3824462891
0.3824462891
0.380859375
0.3805541992
0.3815002441
0.3815002441
0.3802490234
0.3802490234
0.3786315918
0.3786315918
0.3761291504
0.3764343262
0.374206543
0.3745422363
0.375793457
0.375793457
0.3789672852
0.3789672852
0.380859375
0.3805541992
0.3821411133
0.3821411133
0.3827819824
0.3824462891
0.3818054199
0.3821411133
0.3796081543
0.3796081543
0.3773803711
0.3773803711
0.3764343262
0.3764343262
0.3780212402
0.3780212402
0.3789672852
0.3793029785
0.3815002441
0.380859375
0.3827819824
0.3818054199
0.3824462891
0.3824462891
0.3815002441
0.3815002441
0.3824462891
0.3815002441
0.3802490234
0.3799133301
0.380859375
0.3796081543
0.3805541992
0.3802490234
0.3793029785
0.3805541992
0.3764343262
0.3761291504
0.373260498
0.373260498
0.371673584
0.3719787598
0.3729248047
0.3723144531
0.373260498
0.3726196289
0.374206543
0.3739013672
0.3754882812
0.375793457
0.3770751953
0.3773803711
0.3786315918
0.378326416
0.3802490234
0.3802490234
0.3824462891
0.3818054199
0.3830871582
0.3821411133
0.3840332031
0.3840332031
0.3856201172
0.3856201172
0.3872070312
0.3865661621
0.3894348145
0.3897399902
0.3922729492
0.3922729492
0.3945007324
0.3945007324
0.396697998
0.396697998
0.3999023438
0.3999023438
0.4033813477
0.4033813477
0.4132080078
0.4138183594
0.4299926758
0.4306335449
0.4550476074
0.4569396973
0.313659668
0.3124084473
0.3073120117
0.3124084473
0.3517150879
0.3529663086
0.3723144531
0.373260498
0.3999023438
0.4008483887
0.4185791016
0.4192199707
0.4309387207
0.4312744141
0.4392089844
0.4392089844
0.4017944336
0.3983154297
0.2882995605
0.2844848633
0.2601013184
0.2645263672
0.3133544922
0.3155822754
0.3637390137
0.3653259277
0.3932189941
0.3941955566
0.4046325684
0.4049682617
0.4065551758
0.4052734375
0.402130127
0.402130127
0.3973693848
0.3973693848
0.3916625977
0.3926086426
0.3989257812
0.3916625977
0.3821411133
0.3830871582
0.3821411133
0.3830871582
0.3840332031
0.3846740723
0.3837280273
0.3840332031
0.3827819824
0.3830871582
0.3821411133
0.3827819824
0.3815002441
0.3815002441
0.3821411133
0.3815002441
0.3821411133
0.3821411133
0.383392334
0.3827819824
0.3840332031
0.3830871582
0.3837280273
0.3830871582
0.3824462891
0.3830871582
0.3815002441
0.3815002441
0.3799133301
0.3799133301
0.376739502
0.3770751953
0.3748474121
0.3748474121
0.3723144531
0.3719787598
0.3710327148
0.3713684082
0.3704223633
0.3704223633
0.369140625
0.3688354492
0.3678894043
0.3678894043
0.3669128418
0.3669128418
0.366607666
0.366607666
0.369140625
0.369140625
0.3723144531
0.3723144531
0.3878479004
0.3884887695
0.4052734375
0.4059143066
0.4284057617
0.4296875
0.4591674805
0.4607543945
0.4921264648
0.4898986816
0.3907165527
0.383392334
0.2274169922
0.2242736816
0.3780212402
0.3215942383
0.5143432617
0.4642333984
-0.09844970703
0.0004577636719
0.2759399414
0.2892456055
0.422088623
0.425567627
0.4452209473
0.4458618164
0.4525146484
0.4496765137
0.4356994629
0.4350891113
0.4226989746
0.422088623
0.4052734375
0.4052734375
0.3976745605
0.3976745605
0.3954467773
0.3954467773
0.3935546875
0.3935546875
0.3913269043
0.3910217285
0.3887939453
0.3887939453
0.3878479004
0.3890991211
0.3884887695
0.3887939453
0.3865661621
0.3862609863
0.383392334
0.3830871582
0.3770751953
0.376739502
0.3688354492
0.3688354492
0.3672180176
0.3678894043
0.3710327148
0.3989257812
0.3710327148
0.374206543
0.374206543
0.375793457
0.375793457
0.374206543
0.3745422363
0.3735961914
0.3739013672
0.373260498
0.3729248047
0.3735961914
0.3735961914
0.3729248047
0.373260498
0.374206543
0.3739013672
0.3751525879
0.3748474121
0.3770751953
0.3770751953
0.3789672852
0.378326416
0.3793029785
0.3789672852
0.3799133301
0.3796081543
0.380859375
0.380859375
0.3818054199
0.3815002441
0.3830871582
0.3827819824
0.3837280273
0.3827819824
0.3821411133
0.3824462891
0.3818054199
0.3818054199
0.3827819824
0.3830871582
0.3821411133
0.3830871582
0.3840332031
0.3837280273
0.3843383789
0.3840332031
0.3846740723
0.3850097656
0.3843383789
0.3850097656
0.3856201172
0.3853149414
0.3881530762
0.3884887695
0.3926086426
0.3929138184
0.3948059082
0.3951416016
0.3935546875
0.3932189941
0.3805541992
0.3802490234
0.3621826172
0.3612060547
0.3428344727
0.3412475586
0.3437805176
0.3444213867
0.3542480469
0.3548583984
0.3647155762
0.365020752
0.374206543
0.3748474121
0.380859375
0.3811950684
0.3830871582
0.383392334
0.3827819824
0.383392334
0.380859375
0.3805541992
0.378326416
0.378326416
0.3773803711
0.3780212402
0.3770751953
0.376739502
0.3780212402
0.3780212402
0.3789672852
0.3789672852
0.3818054199
0.3818054199
0.3853149414
0.3853149414
0.3862609863
0.3856201172
0.3846740723
0.3850097656
0.3830871582
0.3830871582
0.3811950684
0.380859375
0.3786315918
0.378326416
0.3748474121
0.3748474121
0.3729248047
0.3729248047
0.3713684082
0.371673584
0.3726196289
0.3726196289
0.374206543
0.374206543
0.3773803711
0.3776855469
0.3805541992
0.380859375
0.3837280273
0.3830871582
0.3853149414
0.3850097656
0.3859558105
0.3859558105
0.387512207
0.387512207
0.3881530762
0.3872070312
0.3859558105
0.3859558105
0.3837280273
0.3837280273
0.3827819824
0.3830871582
0.3821411133
0.3827819824
0.3811950684
0.3811950684
0.3796081543
0.3796081543
0.3789672852
0.3789672852
0.3805541992
0.3802490234
0.383392334
0.3837280273
0.3856201172
0.3859558105
0.3869018555
0.3865661621
0.3872070312
0.3865661621
0.3853149414
0.3856201172
0.3846740723
0.3846740723
0.383392334
0.3837280273
0.3818054199
0.3821411133
0.380859375
0.3811950684
0.3802490234
0.3799133301
0.380859375
0.3799133301
0.380859375
0.3802490234
0.380859375
0.380859375
0.3818054199
0.3818054199
0.383392334
0.3830871582
0.3843383789
0.3843383789
0.3853149414
0.3850097656
0.3859558105
0.3862609863
0.3853149414
0.3853149414
0.3862609863
0.3862609863
0.3856201172
0.3859558105
0.3840332031
0.3840332031
0.3805541992
0.3805541992
0.3770751953
0.3764343262
0.374206543
0.3735961914
0.374206543
0.374206543
0.3748474121
0.3751525879
0.3739013672
0.3745422363
0.3723144531
0.373260498
0.3713684082
0.3710327148
0.3723144531
0.3726196289
0.3751525879
0.3751525879
0.378326416
0.378326416
0.3793029785
0.3789672852
0.3799133301
0.3799133301
0.3793029785
0.3796081543
0.3786315918
0.3786315918
0.3770751953
0.3773803711
0.3748474121
0.3748474121
0.374206543
0.3745422363
0.3735961914
0.3735961914
0.3723144531
0.3726196289
0.3739013672
0.3739013672
0.3751525879
0.3748474121
0.3761291504
0.3761291504
0.3773803711
0.3773803711
0.3789672852
0.3789672852
0.3799133301
0.3793029785
0.3780212402
0.3776855469
0.374206543
0.3739013672
0.3710327148
0.3710327148
0.3684997559
0.3684997559
0.3672180176
0.3669128418
0.3678894043
0.3672180176
0.3694458008
0.3694458008
0.3723144531
0.3719787598
0.3761291504
0.3764343262
0.380859375
0.3802490234
0.3843383789
0.3846740723
0.3894348145
0.390045166
0.3941955566
0.3945007324
0.4005126953
0.4011535645
0.4097290039
0.4106750488
0.4268493652
0.4277954102
0.4556884766
0.4623413086
0.3339538574
0.3307800293
0.3057250977
0.306060791
0.3479003906
0.3494873047
0.371673584
0.3729248047
0.402130127
0.4030761719
0.4223937988
0.4233398438
0.4366455078
0.4373168945
0.4465026855
0.4477539062
0.4262084961
0.4226989746
0.3124084473
0.3082580566
0.2658081055
0.267364502
0.3089294434
0.3114318848
0.3621826172
0.3637390137
0.3948059082
0.3951416016
0.4090881348
0.4093933105
0.4125671387
0.4122619629
0.4093933105
0.4093933105
0.4062194824
0.4059143066
0.3999023438
0.3999023438
0.4068603516
0.4033813477
0.3887939453
0.3894348145
0.387512207
0.3872070312
0.3878479004
0.3878479004
0.3862609863
0.3859558105
0.383392334
0.383392334
0.380859375
0.380859375
0.3793029785
0.3786315918
0.3796081543
0.3796081543
0.3789672852
0.3786315918
0.3799133301
0.3793029785
0.3850097656
0.3856201172
0.4014587402
0.402130127
0.4176330566
0.4182739258
0.4385681152
0.4398193359
0.4699401855
0.4816894531
0.4515686035
0.448059082
0.291809082
0.2851257324
0.2217102051
0.2752990723
0.4816894531
0.5130615234
0.002990722656
-0.1117553711
0.08193969727
0.09619140625
0.3869018555
0.3913269043
0.448059082
0.4496765137
0.4582214355
0.4556884766
0.4382629395
0.4373168945
0.423034668
0.4223937988
0.4122619629
0.4119262695
0.4043273926
0.4040222168
0.3995666504
0.3995666504
0.3960876465
0.3964233398
0.3938598633
0.3941955566
0.3919677734
0.3922729492
0.3913269043
0.3910217285
0.3919677734
0.3929138184
0.3916625977
0.3919677734
0.3890991211
0.3887939453
0.3843383789
0.3840332031
0.3770751953
0.376739502
0.3726196289
0.3726196289
0.371673584
0.3723144531
0.373260498
0.3723144531
0.3729248047
0.3719787598
0.3729248047
0.3723144531
0.3748474121
0.3748474121
0.3776855469
0.3773803711
0.3789672852
0.3789672852
0.3796081543
0.3793029785
0.3802490234
0.3796081543
0.3802490234
0.3802490234
0.3796081543
0.3793029785
0.3802490234
0.3802490234
0.380859375
0.3805541992
0.3811950684
0.380859375
0.3815002441
0.3815002441
0.3805541992
0.3805541992
0.3799133301
0.3799133301
0.3789672852
0.3793029785
0.378326416
0.3786315918
0.3776855469
0.3780212402
0.376739502
0.376739502
0.3776855469
0.3770751953
0.375793457
0.3764343262
0.3751525879
0.3754882812
0.3745422363
0.3751525879
0.3739013672
0.374206543
0.3748474121
0.3745422363
0.375793457
0.3751525879
0.375793457
0.3754882812
0.376739502
0.3764343262
0.3780212402
0.3776855469
0.3789672852
0.3789672852
0.3796081543
0.3802490234
0.3796081543
0.3799133301
0.3789672852
0.3786315918
0.3799133301
0.3802490234
0.3811950684
0.3811950684
0.3805541992
0.3805541992
0.3815002441
0.3811950684
0.3824462891
0.3818054199
0.3824462891
0.3830871582
0.3818054199
0.3818054199
0.3815002441
0.3818054199
0.3811950684
0.3811950684
0.3805541992
0.380859375
0.3796081543
0.3802490234
0.3789672852
0.3789672852
0.3776855469
0.378326416
0.3773803711
0.3780212402
0.3796081543
0.3799133301
0.3824462891
0.3824462891
0.3843383789
0.3840332031
0.3830871582
0.383392334
0.3840332031
0.3843383789
0.383392334
0.383392334
0.3821411133
0.3824462891
0.3818054199
0.3821411133
0.383392334
0.3837280273
0.3850097656
0.3850097656
0.3865661621
0.3865661621
0.3846740723
0.3846740723
0.3853149414
0.3856201172
0.387512207
0.387512207
0.3890991211
0.3894348145
0.3907165527
0.3903808594
0.387512207
0.3872070312
0.3796081543
0.3793029785
0.3723144531
0.3723144531
0.3704223633
0.3704223633
0.3713684082
0.3710327148
0.3697814941
0.3707275391
0.3697814941
0.3707275391
0.3688354492
0.3684997559
0.3672180176
0.3672180176
0.3684997559
0.3684997559
0.3719787598
0.3719787598
0.3748474121
0.3751525879
0.3770751953
0.3773803711
0.3786315918
0.3786315918
0.3802490234
0.3802490234
0.3815002441
0.3815002441
0.3827819824
0.3824462891
0.3830871582
0.3824462891
0.380859375
0.3805541992
0.3780212402
0.3780212402
0.3754882812
0.3751525879
0.3723144531
0.3719787598
0.3710327148
0.3713684082
0.375793457
0.3761291504
0.3821411133
0.3824462891
0.3878479004
0.3878479004
0.3926086426
0.3929138184
0.3862609863
0.3856201172
0.373260498
0.3723144531
0.3536071777
0.353302002
0.3482055664
0.3485412598
0.353302002
0.3536071777
0.3612060547
0.3612060547
0.3662719727
0.3662719727
0.3688354492
0.3688354492
0.3719787598
0.3719787598
0.3748474121
0.3751525879
0.3770751953
0.376739502
0.3805541992
0.380859375
0.3869018555
0.3872070312
0.3919677734
0.3926086426
0.396697998
0.396697998
0.3986206055
0.3986206055
0.3995666504
0.3992614746
0.3979797363
0.3976745605
0.3954467773
0.3954467773
0.3926086426
0.3932189941
0.3919677734
0.3922729492
0.3907165527
0.3907165527
0.3894348145
0.3894348145
0.3872070312
0.3869018555
0.3843383789
0.3840332031
0.3811950684
0.380859375
0.3786315918
0.3789672852
0.3776855469
0.3776855469
0.3793029785
0.3789672852
0.3802490234
0.3799133301
0.3815002441
0.380859375
0.3799133301
0.3796081543
0.378326416
0.3780212402
0.3786315918
0.378326416
0.3796081543
0.3796081543
0.3818054199
0.3818054199
0.3830871582
0.3824462891
0.383392334
0.3821411133
0.3837280273
0.3830871582
0.380859375
0.380859375
0.3780212402
0.3786315918
0.3776855469
0.3789672852
0.3780212402
0.378326416
0.3793029785
0.3789672852
0.378326416
0.378326416
0.3793029785
0.378326416
0.3793029785
0.3786315918
0.3793029785
0.3796081543
0.3815002441
0.3818054199
0.3846740723
0.3850097656
0.3840332031
0.3840332031
0.3824462891
0.3827819824
0.3818054199
0.3821411133
0.3846740723
0.3850097656
0.3926086426
0.3935546875
0.408782959
0.4093933105
0.4369812012
0.4458618164
0.3273010254
0.3238220215
0.299407959
0.2987670898
0.3361816406
0.3384094238
0.3618469238
0.3631286621
0.3932189941
0.3945007324
0.4147949219
0.4157409668
0.4309387207
0.4312744141
0.4432983398
0.4461669922
0.432220459
0.4293823242
0.3231811523
0.3184204102
0.2715148926
0.2721252441
0.3114318848
0.313659668
0.3656616211
0.3672180176
0.3986206055
0.3992614746
0.4119262695
0.4132080078
0.4116210938
0.4116210938
0.4068603516
0.4052734375
0.4081115723
0.4084472656
0.4173278809
0.4176330566
0.4398193359
0.4401550293
0.4493408203
0.4506225586
0.4819946289
0.4886474609
0.4461669922
0.4407958984
0.2822875977
0.2325134277
0.2962341309
0.3067016602
0.5064086914
0.5311279297
-0.07562255859
-0.1158752441
0.1139526367
0.1291809082
0.4030761719
0.4059143066
0.4426879883
0.4442749023
0.4610900879
0.4610900879
0.449005127
0.448059082
0.4316101074
0.4309387207
0.4160461426
0.4151000977
0.4056091309
0.4052734375
0.3989257812
0.3989257812
0.3964233398
0.3960876465
0.3926086426
0.3922729492
0.3872070312
0.3872070312
0.3846740723
0.3853149414
0.3840332031
0.3840332031
0.3818054199
0.3815002441
0.3754882812
0.3751525879
0.3681945801
0.3681945801
0.3618469238
0.3609008789
0.3621826172
0.3621826172
0.3672180176
0.3672180176
0.3726196289
0.3726196289
0.3761291504
0.375793457
0.3780212402
0.3780212402
0.3802490234
0.3805541992
0.383392334
0.3830871582
0.3853149414
0.3850097656
0.3862609863
0.3859558105
0.3846740723
0.3843383789
0.3850097656
0.3846740723
0.3837280273
0.3840332031
0.383392334
0.3840332031
0.383392334
0.3837280273
0.3824462891
0.383392334
0.3824462891
0.3830871582
0.3815002441
0.3818054199
0.3789672852
0.3789672852
0.3780212402
0.378326416
0.3773803711
0.3773803711
0.378326416
0.378326416
0.3773803711
0.3776855469
0.3786315918
0.3780212402
0.3796081543
0.3789672852
0.3799133301
0.3799133301
0.3789672852
0.3793029785
0.3776855469
0.3776855469
0.3761291504
0.3761291504
0.3729248047
0.373260498
0.371673584
0.3719787598
0.374206543
0.374206543
0.376739502
0.376739502
0.3799133301
0.3802490234
0.3824462891
0.3824462891
0.3840332031
0.3840332031
0.3846740723
0.3846740723
0.3837280273
0.383392334
0.3840332031
0.3840332031
0.3830871582
0.383392334
0.3827819824
0.383392334
0.3815002441
0.3818054199
0.3802490234
0.3802490234
0.3793029785
0.3796081543
0.3789672852
0.3793029785
0.3773803711
0.3776855469
0.376739502
0.376739502
0.3770751953
0.376739502
0.3773803711
0.3770751953
0.3776855469
0.3773803711
0.376739502
0.3770751953
0.3776855469
0.3780212402
0.3770751953
0.378326416
0.376739502
0.376739502
0.3754882812
0.375793457
0.3751525879
0.3754882812
0.376739502
0.3764343262
0.3776855469
0.3770751953
0.3776855469
0.3770751953
0.3776855469
0.3780212402
0.3773803711
0.3776855469
0.3789672852
0.3789672852
0.3780212402
0.378326416
0.3773803711
0.3770751953
0.3776855469
0.3770751953
0.3786315918
0.3786315918
0.3796081543
0.3789672852
0.3802490234
0.3802490234
0.3811950684
0.3811950684
0.3821411133
0.3824462891
0.3843383789
0.3843383789
0.3869018555
0.3865661621
0.387512207
0.3878479004
0.3865661621
0.3872070312
0.3859558105
0.3862609863
0.387512207
0.387512207
0.3881530762
0.3881530762
0.3894348145
0.3890991211
0.3897399902
0.3897399902
0.3887939453
0.3890991211
0.3872070312
0.3872070312
0.3830871582
0.3827819824
0.3780212402
0.3780212402
0.3745422363
0.3748474121
0.3739013672
0.373260498
0.3745422363
0.374206543
0.3761291504
0.3761291504
0.3773803711
0.3770751953
0.3751525879
0.3751525879
0.374206543
0.3739013672
0.3748474121
0.374206543
0.375793457
0.3754882812
0.3770751953
0.3773803711
0.3796081543
0.3796081543
0.3818054199
0.3818054199
0.3830871582
0.3818054199
0.3824462891
0.3821411133
0.3827819824
0.3830871582
0.3824462891
0.3830871582
0.3821411133
0.3824462891
0.3830871582
0.3824462891
0.3827819824
0.3827819824
0.380859375
0.3805541992
0.3770751953
0.376739502
0.3754882812
0.3751525879
0.3764343262
0.375793457
0.3773803711
0.3770751953
0.3776855469
0.3776855469
0.376739502
0.376739502
0.3745422363
0.3989257812
0.3748474121
0.3739013672
0.374206543
0.3754882812
0.3754882812
0.3748474121
0.3751525879
0.376739502
0.376739502
0.3780212402
0.3776855469
0.3796081543
0.3796081543
0.3805541992
0.3799133301
0.380859375
0.380859375
0.3802490234
0.3805541992
0.3818054199
0.3815002441
0.3805541992
0.380859375
0.3799133301
0.3802490234
0.3796081543
0.3796081543
0.378326416
0.378326416
0.3761291504
0.3761291504
0.376739502
0.3761291504
0.3770751953
0.376739502
0.3786315918
0.378326416
0.3799133301
0.3796081543
0.3805541992
0.3802490234
0.3815002441
0.380859375
0.3830871582
0.3830871582
0.3856201172
0.3856201172
0.3865661621
0.3865661621
0.3856201172
0.3856201172
0.3840332031
0.3840332031
0.3821411133
0.3821411133
0.3793029785
0.3789672852
0.3770751953
0.3770751953
0.3751525879
0.3751525879
0.3735961914
0.374206543
0.3713684082
0.3713684082
0.369140625
0.3688354492
0.3669128418
0.3672180176
0.3704223633
0.3704223633
0.3729248047
0.3729248047
0.3748474121
0.3745422363
0.3773803711
0.3770751953
0.3789672852
0.3789672852
0.3802490234
0.3802490234
0.3824462891
0.3818054199
0.3830871582
0.3827819824
0.3850097656
0.3846740723
0.3856201172
0.3853149414
0.3865661621
0.3862609863
0.3846740723
0.3850097656
0.3840332031
0.3846740723
0.3840332031
0.3843383789
0.3830871582
0.3830871582
0.3818054199
0.3815002441
0.3805541992
0.380859375
0.3799133301
0.3796081543
0.380859375
0.3802490234
0.3811950684
0.380859375
0.3821411133
0.3818054199
0.3827819824
0.3824462891
0.3827819824
0.3824462891
0.3856201172
0.3859558105
0.3894348145
0.3894348145
0.3913269043
0.3919677734
0.3907165527
0.3907165527
0.3818054199
0.3811950684
0.3659667969
0.3653259277
0.3466186523
0.3460083008
0.3396606445
0.3396606445
0.3479003906
0.3485412598
0.3627929688
0.3634338379
0.3761291504
0.376739502
0.3850097656
0.3853149414
0.390045166
0.3897399902
0.3916625977
0.3916625977
0.3929138184
0.3932189941
0.4027404785
0.4033813477
0.4214477539
0.422088623
0.4436340332
0.4442749023
0.4680480957
0.4692993164
0.5029296875
0.506072998
0.4502868652
0.4449157715
0.2794189453
0.2471008301
0.3583679199
0.3764343262
0.5425415039
0.5358886719
-0.04232788086
-0.04550170898
0.126953125
0.1402587891
0.3536071777
0.3501281738
0.3970336914
0.4011535645
0.4486999512
0.4496765137
0.4636230469
0.4636230469
0.4671020508
0.4674072266
0.4588623047
0.4601135254
0.4582214355
0.4588623047
0.4309387207
0.427154541
0.3247680664
0.3200073242
0.2686462402
0.2695922852
0.3079528809
0.3101806641
0.3577270508
0.3593139648
0.3872070312
0.3878479004
0.3989257812
0.3995666504
0.3983154297
0.3986206055
0.3960876465
0.3960876465
0.3941955566
0.3948059082
0.3938598633
0.3938598633
0.3926086426
0.3922729492
0.3907165527
0.3903808594
0.3890991211
0.3894348145
0.3907165527
0.3903808594
0.3922729492
0.3922729492
0.3935546875
0.3932189941
0.3913269043
0.3913269043
0.3856201172
0.3853149414
0.3764343262
0.3764343262
0.3726196289
0.3726196289
0.3723144531
0.373260498
0.371673584
0.371673584
0.3707275391
0.3710327148
0.3700866699
0.3704223633
0.3694458008
0.3700866699
0.3713684082
0.3710327148
0.3729248047
0.3726196289
0.373260498
0.3729248047
0.3748474121
0.3748474121
0.3761291504
0.375793457
0.376739502
0.376739502
0.3773803711
0.376739502
0.3780212402
0.3776855469
0.378326416
0.3780212402
0.3793029785
0.3789672852
0.3802490234
0.3799133301
0.380859375
0.380859375
0.3821411133
0.3821411133
0.380859375
0.380859375
0.3815002441
0.3811950684
0.3818054199
0.3818054199
0.380859375
0.380859375
0.3824462891
0.3827819824
0.3859558105
0.3859558105
0.3869018555
0.3865661621
0.387512207
0.3869018555
0.3843383789
0.3843383789
0.3821411133
0.3821411133
0.380859375
0.3811950684
0.3821411133
0.3824462891
0.3815002441
0.3821411133
0.3811950684
0.3811950684
0.3799133301
0.3802490234
0.3793029785
0.3796081543
0.3786315918
0.3796081543
0.3789672852
0.3789672852
0.3796081543
0.3789672852
0.3796081543
0.3799133301
0.3786315918
0.3793029785
0.378326416
0.3786315918
0.3770751953
0.3770751953
0.3751525879
0.3751525879
0.3739013672
0.374206543
0.3761291504
0.3761291504
0.378326416
0.3786315918
0.3793029785
0.3786315918
0.3799133301
0.3796081543
0.3811950684
0.3815002441
0.3830871582
0.383392334
0.3824462891
0.3837280273
0.3827819824
0.383392334
0.3811950684
0.3815002441
0.3799133301
0.3799133301
0.3796081543
0.3786315918
0.3802490234
0.3796081543
0.3805541992
0.3805541992
0.3811950684
0.3815002441
0.3805541992
0.3815002441
0.3802490234
0.3805541992
0.3793029785
0.3789672852
0.3796081543
0.3796081543
0.3786315918
0.3789672852
0.3796081543
0.3793029785
0.3799133301
0.3789672852
0.3796081543
0.3796081543
0.3789672852
0.3789672852
0.3799133301
0.3799133301
0.3796081543
0.3799133301
0.3793029785
0.3796081543
0.378326416
0.378326416
0.3770751953
0.3776855469
0.375793457
0.375793457
0.3745422363
0.3745422363
0.3735961914
0.3735961914
0.374206543
0.3745422363
0.3735961914
0.3745422363
0.376739502
0.376739502
0.378326416
0.378326416
0.3805541992
0.3802490234
0.3811950684
0.3811950684
0.3802490234
0.3802490234
0.380859375
0.3805541992
0.3796081543
0.3793029785
0.3802490234
0.3796081543
0.3811950684
0.380859375
0.3827819824
0.3824462891
0.3843383789
0.3846740723
0.3869018555
0.3872070312
0.3881530762
0.387512207
0.3862609863
0.3862609863
0.3878479004
0.3881530762
0.3897399902
0.3897399902
0.3916625977
0.3910217285
0.3872070312
0.3869018555
0.3837280273
0.383392334
0.3815002441
0.3818054199
0.3805541992
0.3805541992
0.3821411133
0.3818054199
0.383392334
0.383392334
0.3840332031
0.3830871582
0.3811950684
0.3805541992
0.3818054199
0.3815002441
0.3821411133
0.3815002441
0.378326416
0.3780212402
0.3735961914
0.3739013672
0.3726196289
0.3735961914
0.3710327148
0.3710327148
0.3678894043
0.3678894043
0.3672180176
0.3678894043
0.3694458008
0.3694458008
0.3710327148
0.3710327148
0.373260498
0.3729248047
0.375793457
0.3761291504
0.3796081543
0.3796081543
0.3830871582
0.383392334
0.3843383789
0.3843383789
0.3837280273
0.3840332031
0.3818054199
0.3821411133
0.3799133301
0.3799133301
0.3789672852
0.3793029785
0.3770751953
0.3773803711
0.3751525879
0.3751525879
0.3748474121
0.3748474121
0.3764343262
0.3761291504
0.3770751953
0.3770751953
0.3780212402
0.3780212402
0.3770751953
0.3776855469
0.3770751953
0.3773803711
0.3764343262
0.3770751953
0.375793457
0.3761291504
0.376739502
0.3776855469
0.3761291504
0.376739502
0.3761291504
0.3764343262
0.3751525879
0.375793457
0.3748474121
0.3751525879
0.375793457
0.3754882812
0.376739502
0.376739502
0.3773803711
0.3773803711
0.3786315918
0.3789672852
0.3799133301
0.3799133301
0.3818054199
0.3818054199
0.3830871582
0.383392334
0.3853149414
0.3850097656
0.3960876465
0.396697998
0.4144897461
0.4151000977
0.433807373
0.4344482422
0.4559936523
0.4569396973
0.4873962402
0.4908752441
0.4306335449
0.4242858887
0.2509155273
0.2210998535
0.3605651855
0.3165283203
0.5213012695
0.5194091797
-0.1066894531
-0.09780883789
0.194152832
0.2106323242
0.4217529297
0.4226989746
0.4531555176
0.4496765137
0.4566345215
0.4563293457
0.4439697266
0.4432983398
0.4299926758
0.4293823242
0.4081115723
0.4078063965
0.396697998
0.3964233398
0.3926086426
0.3926086426
0.3903808594
0.3903808594
0.3865661621
0.3862609863
0.3811950684
0.3811950684
0.3751525879
0.3748474121
0.3704223633
0.3700866699
0.3675537109
0.3678894043
0.3704223633
0.3700866699
0.3751525879
0.375793457
0.3837280273
0.3840332031
0.3935546875
0.3938598633
0.3989257812
0.3992614746
0.3948059082
0.3945007324
0.383392334
0.3827819824
0.3659667969
0.3656616211
0.3615112305
0.362487793
0.3789672852
0.3799133301
0.4138183594
0.4151000977
0.4502868652
0.4262084961
0.3206176758
0.3203125
0.3355407715
0.3371276855
0.3704223633
0.3707275391
0.3890991211
0.3897399902
0.4122619629
0.4128723145
0.4319152832
0.4325561523
0.4442749023
0.4445800781
0.4506225586
0.4486999512
0.3929138184
0.3894348145
0.2797241211
0.2734069824
0.2841796875
0.2854309082
0.3396606445
0.3415527344
0.3850097656
0.3865661621
0.4078063965
0.4084472656
0.4138183594
0.4138183594
0.4109802246
0.4106750488
0.4052734375
0.4052734375
0.3995666504
0.3992614746
0.3945007324
0.4014587402
0.3945007324
0.3935546875
0.3840332031
0.3837280273
0.3821411133
0.3821411133
0.3827819824
0.3821411133
0.3827819824
0.3821411133
0.3805541992
0.3811950684
0.3796081543
0.3796081543
0.3789672852
0.3789672852
0.3776855469
0.378326416
0.3773803711
0.3773803711
0.378326416
0.3780212402
0.376739502
0.3770751953
0.3776855469
0.3770751953
0.3776855469
0.3773803711
0.3780212402
0.378326416
0.3802490234
0.3796081543
0.3811950684
0.3811950684
0.3818054199
0.3811950684
0.3818054199
0.380859375
0.3818054199
0.3821411133
0.3818054199
0.3815002441
0.3818054199
0.3821411133
0.380859375
0.3811950684
0.3805541992
0.3805541992
0.3796081543
0.3796081543
0.3780212402
0.3776855469
0.3764343262
0.3764343262
0.375793457
0.3761291504
0.3751525879
0.3751525879
0.3739013672
0.3739013672
0.3719787598
0.3723144531
0.3704223633
0.3704223633
0.3688354492
0.3688354492
0.3678894043
0.3681945801
0.3700866699
0.3697814941
0.3723144531
0.3719787598
0.374206543
0.374206543
0.3754882812
0.3754882812
0.3764343262
0.3761291504
0.376739502
0.375793457
0.376739502
0.3761291504
0.3770751953
0.3761291504
0.3776855469
0.3776855469
0.3770751953
0.3770751953
0.3754882812
0.3754882812
0.373260498
0.3735961914
0.3726196289
0.3729248047
0.3739013672
0.3735961914
0.3745422363
0.374206543
0.373260498
0.373260498
0.3739013672
0.3735961914
0.3748474121
0.3745422363
0.3780212402
0.3780212402
0.3799133301
0.3799133301
0.3818054199
0.3818054199
0.3830871582
0.3830871582
0.3846740723
0.3843383789
0.3862609863
0.3862609863
0.3881530762
0.3881530762
0.3894348145
0.3894348145
0.3884887695
0.3884887695
0.387512207
0.3872070312
0.3865661621
0.3865661621
0.3853149414
0.3856201172
0.3830871582
0.3830871582
0.3811950684
0.3811950684
0.3805541992
0.3805541992
0.3811950684
0.380859375
0.3815002441
0.3811950684
0.3805541992
0.3811950684
0.3805541992
0.380859375
0.3802490234
0.380859375
0.3786315918
0.378326416
0.3773803711
0.3780212402
0.3786315918
0.3776855469
0.378326416
0.378326416
0.3773803711
0.3773803711
0.375793457
0.375793457
0.3748474121
0.3754882812
0.378326416
0.3780212402
0.3811950684
0.3811950684
0.3824462891
0.3815002441
0.3824462891
0.3815002441
0.3821411133
0.3818054199
0.3827819824
0.3827819824
0.3818054199
0.3824462891
0.3815002441
0.3818054199
0.380859375
0.3802490234
0.3811950684
0.3805541992
0.3811950684
0.380859375
0.3811950684
0.3811950684
0.3802490234
0.3799133301
0.380859375
0.3805541992
0.3799133301
0.3796081543
0.3786315918
0.378326416
0.3793029785
0.3786315918
0.3793029785
0.3789672852
0.3799133301
0.3796081543
0.380859375
0.3805541992
0.3815002441
0.3815002441
0.3830871582
0.3830871582
0.3840332031
0.3843383789
0.3856201172
0.3859558105
0.3872070312
0.387512207
0.3884887695
0.3884887695
0.3890991211
0.3887939453
0.3897399902
0.3897399902
0.3903808594
0.3907165527
0.3887939453
0.3887939453
0.3856201172
0.3856201172
0.3824462891
0.3821411133
0.3786315918
0.378326416
0.3748474121
0.3745422363
0.3735961914
0.3745422363
0.375793457
0.375793457
0.3751525879
0.3748474121
0.3726196289
0.373260498
0.3726196289
0.3729248047
0.3745422363
0.3745422363
0.3751525879
0.374206543
0.3748474121
0.374206543
0.3729248047
0.3729248047
0.3704223633
0.3710327148
0.369140625
0.3688354492
0.3697814941
0.3697814941
0.3726196289
0.3729248047
0.3764343262
0.3764343262
0.3796081543
0.3802490234
0.3821411133
0.3818054199
0.3840332031
0.3840332031
0.383392334
0.3830871582
0.3840332031
0.383392334
0.3824462891
0.3827819824
0.3811950684
0.3811950684
0.3872070312
0.3881530762
0.4027404785
0.4036865234
0.4185791016
0.4195251465
0.4417419434
0.4430236816
0.4753417969
0.483581543
0.4468078613
0.4420471191
0.2787780762
0.2226867676
0.2908325195
0.2791137695
0.4972229004
0.5168762207
0.0001220703125
-0.1092224121
0.1012573242
0.1174316406
0.408782959
0.3773803711
0.4296875
0.4328613281
0.4588623047
0.4585266113
0.4432983398
0.4426879883
0.4277954102
0.4274597168
0.4075012207
0.4068603516
0.3973693848
0.3970336914
0.3919677734
0.3922729492
0.3897399902
0.3897399902
0.3878479004
0.387512207
0.3850097656
0.3850097656
0.3830871582
0.383392334
0.3818054199
0.3827819824
0.3818054199
0.3818054199
0.3815002441
0.3815002441
0.3818054199
0.3811950684
0.3818054199
0.3811950684
0.3824462891
0.3821411133
0.3830871582
0.3830871582
0.3840332031
0.3837280273
0.3840332031
0.383392334
0.3840332031
0.3837280273
0.3824462891
0.3830871582
0.3824462891
0.3824462891
0.3830871582
0.3827819824
0.3840332031
0.3837280273
0.3853149414
0.3850097656
0.3859558105
0.3859558105
0.3850097656
0.3846740723
0.3824462891
0.3821411133
0.3802490234
0.3802490234
0.375793457
0.375793457
0.3704223633
0.3697814941
0.3684997559
0.3681945801
0.3704223633
0.3707275391
0.3735961914
0.3735961914
0.3764343262
0.3761291504
0.3789672852
0.3793029785
0.3815002441
0.3811950684
0.3827819824
0.3821411133
0.3827819824
0.3827819824
0.3821411133
0.3821411133
0.3805541992
0.3805541992
0.3789672852
0.3796081543
0.3786315918
0.3989257812
0.3789672852
0.3802490234
0.3799133301
0.3805541992
0.3805541992
0.3802490234
0.3805541992
0.3799133301
0.3796081543
0.380859375
0.3802490234
0.3818054199
0.3815002441
0.3840332031
0.3840332031
0.3869018555
0.3865661621
0.3894348145
0.3894348145
0.3916625977
0.3916625977
0.3960876465
0.3964233398
0.4005126953
0.4008483887
0.4090881348
0.4097290039
0.424621582
0.425567627
0.4502868652
0.4559936523
0.3279418945
0.3250732422
0.3051147461
0.3054199219
0.3418884277
0.3431396484
0.3612060547
0.3621826172
0.3881530762
0.3887939453
0.4052734375
0.4062194824
0.4176330566
0.41796875
0.4265136719
0.4277954102
0.4052734375
0.402130127
0.2955932617
0.2911376953
0.2502441406
0.252166748
0.2949523926
0.2971801758
0.3488464355
0.350769043
0.383392334
0.3843383789
0.3992614746
0.3995666504
0.4040222168
0.4040222168
0.4027404785
0.4027404785
0.4008483887
0.4005126953
0.3948059082
0.3945007324
0.4017944336
0.3992614746
0.3869018555
0.387512207
0.3890991211
0.3894348145
0.3913269043
0.3922729492
0.3913269043
0.3916625977
0.3894348145
0.3894348145
0.3872070312
0.387512207
0.3846740723
0.3843383789
0.3818054199
0.3818054199
0.3796081543
0.3799133301
0.3789672852
0.3793029785
0.3799133301
0.3796081543
0.3811950684
0.3815002441
0.3837280273
0.383392334
0.3850097656
0.3850097656
0.3859558105
0.3859558105
0.387512207
0.3872070312
0.3884887695
0.3881530762
0.3894348145
0.3887939453
0.3897399902
0.3890991211
0.3881530762
0.3881530762
0.3865661621
0.3865661621
0.3850097656
0.3850097656
0.3830871582
0.3830871582
0.3815002441
0.3811950684
0.3789672852
0.3793029785
0.3770751953
0.3773803711
0.3754882812
0.3751525879
0.3739013672
0.3739013672
0.3726196289
0.3729248047
0.375793457
0.375793457
0.380859375
0.3811950684
0.3843383789
0.3843383789
0.3862609863
0.3865661621
0.3811950684
0.380859375
0.3688354492
0.3681945801
0.3504333496
0.3494873047
0.3415527344
0.3418884277
0.3479003906
0.3485412598
0.3615112305
0.3621826172
0.3745422363
0.3748474121
0.383392334
0.3837280273
0.3865661621
0.3865661621
0.3890991211
0.3890991211
0.3932189941
0.3935546875
0.3979797363
0.3979797363
0.3992614746
0.3992614746
0.3986206055
0.3986206055
0.3989257812
0.3986206055
0.3970336914
0.3973693848
0.3954467773
0.3957519531
0.3935546875
0.3935546875
0.3916625977
0.3916625977
0.3894348145
0.3894348145
0.3881530762
0.3881530762
0.3862609863
0.3862609863
0.3850097656
0.3850097656
0.3837280273
0.383392334
0.3815002441
0.3815002441
0.3789672852
0.3789672852
0.375793457
0.375793457
0.374206543
0.3745422363
0.3735961914
0.374206543
0.375793457
0.3751525879
0.3776855469
0.3780212402
0.3811950684
0.3815002441
0.3830871582
0.3830871582
0.3853149414
0.3853149414
0.3865661621
0.3872070312
0.3859558105
0.3862609863
0.3846740723
0.3846740723
0.3827819824
0.3830871582
0.3818054199
0.3821411133
0.3811950684
0.3815002441
0.3805541992
0.380859375
0.3818054199
0.3815002441
0.3805541992
0.3811950684
0.3802490234
0.3811950684
0.3802490234
0.3805541992
0.3796081543
0.3802490234
0.3786315918
0.3793029785
0.3780212402
0.3786315918
0.376739502
0.376739502
0.3748474121
0.3748474121
0.374206543
0.3748474121
0.3735961914
0.374206543
0.3751525879
0.3754882812
0.376739502
0.3764343262
0.3786315918
0.3786315918
0.3802490234
0.3799133301
0.3811950684
0.3805541992
0.3811950684
0.3811950684
0.3821411133
0.3821411133
0.3811950684
0.3811950684
0.3802490234
0.3805541992
0.3815002441
0.380859375
0.3821411133
0.3818054199
0.3830871582
0.3824462891
0.3837280273
0.383392334
0.3850097656
0.3843383789
0.3856201172
0.3850097656
0.3862609863
0.3862609863
0.3840332031
0.3837280273
0.3786315918
0.378326416
0.373260498
0.3729248047
0.3707275391
0.3710327148
0.3704223633
0.3707275391
0.3729248047
0.373260498
0.3751525879
0.3751525879
0.3739013672
0.3739013672
0.371673584
0.3713684082
0.373260498
0.373260498
0.387512207
0.3884887695
0.4049682617
0.4059143066
0.4252319336
0.4262084961
0.4522094727
0.4534606934
0.4873962402
0.4873962402
0.4059143066
0.3989257812
0.2334594727
0.2220458984
0.3935546875
0.3403015137
0.5197143555
0.5019836426
-0.08227539062
-0.04675292969
0.2452087402
0.2610473633
0.4049682617
0.3786315918
0.4547119141
0.4559936523
0.4632873535
0.4585266113
0.4401550293
0.4395141602
0.4249267578
0.4242858887
0.4052734375
0.4049682617
0.3957519531
0.3954467773
0.3903808594
0.3903808594
0.387512207
0.3872070312
0.3843383789
0.3840332031
0.3827819824
0.3818054199
0.3830871582
0.3824462891
0.3837280273
0.383392334
0.3818054199
0.3818054199
0.3824462891
0.3821411133
0.3840332031
0.3837280273
0.3850097656
0.3850097656
0.383392334
0.3837280273
0.3824462891
0.3827819824
0.3821411133
0.3824462891
0.3837280273
0.3840332031
0.3856201172
0.3856201172
0.3887939453
0.3884887695
0.3907165527
0.390045166
0.3922729492
0.3926086426
0.3903808594
0.3903808594
0.3853149414
0.3853149414
0.3799133301
0.3796081543
0.3713684082
0.3713684082
0.364074707
0.3637390137
0.3618469238
0.3621826172
0.3643798828
0.364074707
0.3647155762
0.364074707
0.3627929688
0.3621826172
0.3634338379
0.3627929688
0.3643798828
0.364074707
0.3653259277
0.365020752
0.3678894043
0.3678894043
0.3713684082
0.3713684082
0.3754882812
0.3754882812
0.3796081543
0.3799133301
0.3818054199
0.3818054199
0.3830871582
0.3830871582
0.3824462891
0.3824462891
0.3830871582
0.3824462891
0.3818054199
0.3821411133
0.380859375
0.380859375
0.3796081543
0.3799133301
0.3786315918
0.3793029785
0.378326416
0.3780212402
0.3789672852
0.378326416
0.3780212402
0.378326416
0.3776855469
0.3773803711
0.3780212402
0.3773803711
0.378326416
0.378326416
0.3799133301
0.3796081543
0.3802490234
0.3799133301
0.3793029785
0.3789672852
0.3796081543
0.3789672852
0.3799133301
0.3796081543
0.3805541992
0.3799133301
0.3818054199
0.3818054199
0.3830871582
0.3830871582
0.3843383789
0.3840332031
0.3856201172
0.3856201172
0.3878479004
0.387512207
0.3887939453
0.3890991211
0.3897399902
0.390045166
0.3926086426
0.3926086426
0.3957519531
0.3960876465
0.4005126953
0.4008483887
0.4119262695
0.4128723145
0.4312744141
0.4541015625
0.41796875
0.4033813477
0.30859375
0.306060791
0.3238220215
0.325378418
0.3605651855
0.3615112305
0.3890991211
0.3907165527
0.4125671387
0.4132080078
0.4284057617
0.4293823242
0.4392089844
0.4395141602
0.4442749023
0.4392089844
0.3678894043
0.3621826172
0.2677001953
0.2635803223
0.2819519043
0.2841796875
0.3384094238
0.3406066895
0.3811950684
0.3824462891
0.402130127
0.4027404785
0.4078063965
0.4078063965
0.4049682617
0.4049682617
0.4014587402
0.4014587402
0.3951416016
0.3910217285
0.3960876465
0.396697998
0.380859375
0.3799133301
0.3776855469
0.3770751953
0.3789672852
0.378326416
0.3793029785
0.3789672852
0.3776855469
0.3773803711
0.3780212402
0.3780212402
0.3789672852
0.3786315918
0.3799133301
0.3796081543
0.3811950684
0.3805541992
0.3815002441
0.380859375
0.3821411133
0.3818054199
0.3827819824
0.3821411133
0.3827819824
0.3830871582
0.3818054199
0.3818054199
0.3789672852
0.3786315918
0.375793457
0.3761291504
0.3739013672
0.3739013672
0.3719787598
0.3719787598
0.3704223633
0.3704223633
0.3688354492
0.3688354492
0.3704223633
0.3700866699
0.3726196289
0.3723144531
0.3729248047
0.3729248047
0.3739013672
0.3735961914
0.3745422363
0.3748474121
0.3764343262
0.3764343262
0.378326416
0.378326416
0.380859375
0.3805541992
0.3824462891
0.3824462891
0.383392334
0.383392334
0.3850097656
0.3850097656
0.3865661621
0.3862609863
0.387512207
0.3872070312
0.3878479004
0.3878479004
0.3887939453
0.3890991211
0.3884887695
0.3890991211
0.3884887695
0.3884887695
0.3878479004
0.3881530762
0.3872070312
0.387512207
0.3853149414
0.3856201172
0.3827819824
0.3830871582
0.380859375
0.3811950684
0.3805541992
0.3811950684
0.3802490234
0.3805541992
0.380859375
0.3811950684
0.3796081543
0.3799133301
0.380859375
0.3805541992
0.3811950684
0.380859375
0.3793029785
0.3796081543
0.3773803711
0.3776855469
0.376739502
0.376739502
0.3748474121
0.3748474121
0.3735961914
0.3735961914
0.3726196289
0.3729248047
0.3723144531
0.3726196289
0.3719787598
0.3719787598
0.374206543
0.374206543
0.3773803711
0.3773803711
0.3796081543
0.3796081543
0.380859375
0.3805541992
0.3815002441
0.3818054199
0.3872070312
0.3872070312
0.3916625977
0.3919677734
0.3903808594
0.3903808594
0.3862609863
0.3856201172
0.3735961914
0.373260498
0.3570861816
0.3561401367
0.3412475586
0.3393554688
0.3424987793
0.3428344727
0.3555297852
0.3558044434
0.3707275391
0.3713684082
0.383392334
0.3837280273
0.3907165527
0.3907165527
0.3929138184
0.3935546875
0.3916625977
0.3913269043
0.3884887695
0.3884887695
0.3853149414
0.3853149414
0.3843383789
0.3840332031
0.3843383789
0.3843383789
0.3862609863
0.3865661621
0.3887939453
0.3890991211
0.3907165527
0.3903808594
0.3913269043
0.3919677734
0.3907165527
0.3910217285
0.3887939453
0.3887939453
0.3862609863
0.3862609863
0.3840332031
0.3840332031
0.3824462891
0.3827819824
0.3815002441
0.380859375
0.3821411133
0.3827819824
0.3954467773
0.3960876465
0.4128723145
0.4135131836
0.434753418
0.4356994629
0.4623413086
0.4639282227
0.4915161133
0.4867553711
0.3793029785
0.3719787598
0.2293395996
0.2293395996
0.3526611328
0.3079528809
0.4997558594
0.4274597168
-0.07119750977
0.01123046875
0.3089294434
0.322845459
0.3970336914
0.387512207
0.4547119141
0.4579162598
0.4499816895
0.4493408203
0.4325561523
0.4319152832
0.41796875
0.4170227051
0.402130127
0.4017944336
0.3951416016
0.3948059082
0.3919677734
0.3919677734
0.3913269043
0.3916625977
0.390045166
0.390045166
0.387512207
0.387512207
0.3837280273
0.383392334
0.3815002441
0.3811950684
0.3821411133
0.380859375
0.3818054199
0.3818054199
0.3827819824
0.3827819824
0.3840332031
0.3840332031
0.383392334
0.383392334
0.3843383789
0.383392334
0.3840332031
0.3840332031
0.383392334
0.383392334
0.3827819824
0.3827819824
0.3837280273
0.3824462891
0.3830871582
0.3827819824
0.3818054199
0.3818054199
0.3827819824
0.3827819824
0.3840332031
0.3843383789
0.3853149414
0.3853149414
0.3865661621
0.3859558105
0.3869018555
0.3869018555
0.3827819824
0.3824462891
0.3773803711
0.3773803711
0.3748474121
0.3748474121
0.3751525879
0.3748474121
0.374206543
0.3745422363
0.3764343262
0.3764343262
0.3780212402
0.3780212402
0.3764343262
0.3761291504
0.3773803711
0.3773803711
0.378326416
0.378326416
0.3802490234
0.3796081543
0.3805541992
0.380859375
0.3802490234
0.3802490234
0.378326416
0.378326416
0.375793457
0.3761291504
0.374206543
0.374206543
0.3726196289
0.3726196289
0.3719787598
0.3723144531
0.3729248047
0.3729248047
0.3745422363
0.3745422363
0.3761291504
0.3761291504
0.3770751953
0.3770751953
0.378326416
0.378326416
0.3780212402
0.378326416
0.3789672852
0.3786315918
0.3799133301
0.3802490234
0.3789672852
0.3789672852
0.3796081543
0.3796081543
0.3786315918
0.3789672852
0.376739502
0.3770751953
0.3761291504
0.3761291504
0.376739502
0.3764343262
0.3770751953
0.3764343262
0.3773803711
0.3770751953
0.3780212402
0.3770751953
0.3776855469
0.3776855469
0.3770751953
0.3773803711
0.378326416
0.3789672852
0.3780212402
0.3786315918
0.3793029785
0.3789672852
0.3811950684
0.3811950684
0.3830871582
0.3830871582
0.3846740723
0.3840332031
0.3853149414
0.3853149414
0.3862609863
0.3862609863
0.3872070312
0.3869018555
0.3878479004
0.387512207
0.3897399902
0.390045166
0.3919677734
0.3916625977
0.3929138184
0.3926086426
0.3903808594
0.3903808594
0.3830871582
0.3827819824
0.3729248047
0.3726196289
0.3659667969
0.3656616211
0.3669128418
0.366607666
0.3688354492
0.3688354492
0.3707275391
0.3704223633
0.3719787598
0.371673584
0.373260498
0.373260498
0.3739013672
0.374206543
0.375793457
0.3754882812
0.376739502
0.376739502
0.3780212402
0.3773803711
0.3786315918
0.3786315918
0.3780212402
0.3786315918
0.3776855469
0.3780212402
0.3764343262
0.375793457
0.3770751953
0.3764343262
0.378326416
0.378326416
0.3799133301
0.3793029785
0.3827819824
0.3824462891
0.3853149414
0.3856201172
0.3865661621
0.3865661621
0.3850097656
0.3853149414
0.3840332031
0.3837280273
0.3846740723
0.3840332031
0.3846740723
0.3843383789
0.3837280273
0.3843383789
0.3859558105
0.3856201172
0.3881530762
0.3881530762
0.3913269043
0.3913269043
0.3964233398
0.396697998
0.4008483887
0.4008483887
0.4049682617
0.4049682617
0.4128723145
0.4135131836
0.4249267578
0.434753418
0.3488464355
0.3396606445
0.2797241211
0.2746887207
0.2946472168
0.2968444824
0.3260192871
0.3269958496
0.3570861816
0.3583679199
0.3869018555
0.3878479004
0.4106750488
0.4116210938
0.4287414551
0.4293823242
0.4373168945
0.433807373
0.3526611328
0.3466186523
0.2727661133
0.2721252441
0.2958984375
0.2981262207
0.3523254395
0.3542480469
0.3941955566
0.3957519531
0.4170227051
0.4176330566
0.425567627
0.4252319336
0.4265136719
0.4265136719
0.4239807129
0.4239807129
0.4173278809
0.4144897461
0.4208068848
0.4208068848
0.4030761719
0.4027404785
0.3979797363
0.3976745605
0.3910217285
0.3910217285
0.3856201172
0.3856201172
0.3818054199
0.3815002441
0.3793029785
0.3793029785
0.3776855469
0.3776855469
0.3793029785
0.3793029785
0.3805541992
0.3802490234
0.3824462891
0.3824462891
0.3843383789
0.3840332031
0.3830871582
0.3830871582
0.3824462891
0.3989257812
0.3827819824
0.3818054199
0.3821411133
0.380859375
0.380859375
0.3789672852
0.3793029785
0.3780212402
0.3786315918
0.3773803711
0.3776855469
0.376739502
0.3773803711
0.376739502
0.376739502
0.3776855469
0.3773803711
0.3761291504
0.3764343262
0.375793457
0.375793457
0.376739502
0.3761291504
0.3770751953
0.376739502
0.3751525879
0.3754882812
0.374206543
0.3748474121
0.3729248047
0.3735961914
0.3723144531
0.3726196289
0.3719787598
0.371673584
0.3723144531
0.3713684082
0.3723144531
0.3719787598
0.3710327148
0.3710327148
0.371673584
0.371673584
0.3735961914
0.3735961914
0.3751525879
0.3751525879
0.376739502
0.376739502
0.3776855469
0.3780212402
0.3796081543
0.3799133301
0.3837280273
0.3837280273
0.3869018555
0.3869018555
0.3878479004
0.387512207
0.3938598633
0.3941955566
0.4097290039
0.4100341797
0.4268493652
0.4277954102
0.4483947754
0.4493408203
0.4813537598
0.4924621582
0.4601135254
0.4556884766
0.2889404297
0.2813415527
0.2236328125
0.2886352539
0.4715270996
0.495300293
-0.003967285156
-0.07562255859
0.1180725098
0.1339416504
0.4046325684
0.3773803711
0.4242858887
0.424621582
0.4465026855
0.4486999512
0.4411010742
0.4404602051
0.4277954102
0.4274597168
0.4090881348
0.408782959
0.4011535645
0.4008483887
0.396697998
0.396697998
0.3951416016
0.3948059082
0.3926086426
0.3922729492
0.3894348145
0.3897399902
0.387512207
0.387512207
0.3853149414
0.3850097656
0.3821411133
0.3818054199
0.3799133301
0.3796081543
0.3776855469
0.3773803711
0.3745422363
0.3745422363
0.3729248047
0.373260498
0.3723144531
0.3726196289
0.3739013672
0.3735961914
0.3748474121
0.3745422363
0.375793457
0.3754882812
0.3780212402
0.3780212402
0.3821411133
0.3824462891
0.3884887695
0.3884887695
0.3926086426
0.3922729492
0.3935546875
0.3938598633
0.3869018555
0.3862609863
0.3726196289
0.3719787598
0.350769043
0.349822998
0.3406066895
0.3406066895
0.3466186523
0.3469543457
0.3609008789
0.3615112305
0.3745422363
0.3748474121
0.3830871582
0.3830871582
0.3856201172
0.3856201172
0.3872070312
0.3869018555
0.3856201172
0.3859558105
0.3837280273
0.383392334
0.3846740723
0.3843383789
0.3853149414
0.3850097656
0.3865661621
0.3862609863
0.3878479004
0.3878479004
0.3887939453
0.3887939453
0.387512207
0.3881530762
0.3862609863
0.3865661621
0.3837280273
0.383392334
0.380859375
0.380859375
0.3796081543
0.3796081543
0.3780212402
0.3776855469
0.3789672852
0.3789672852
0.3811950684
0.3811950684
0.3837280273
0.3837280273
0.3853149414
0.3850097656
0.3862609863
0.3859558105
0.3869018555
0.3865661621
0.3869018555
0.3859558105
0.3872070312
0.3865661621
0.3872070312
0.3862609863
0.387512207
0.387512207
0.3897399902
0.3890991211
0.3907165527
0.3903808594
0.3894348145
0.390045166
0.3862609863
0.3859558105
0.3802490234
0.3796081543
0.3748474121
0.3745422363
0.375793457
0.375793457
0.378326416
0.378326416
0.3793029785
0.3793029785
0.3776855469
0.3773803711
0.3751525879
0.3751525879
0.3739013672
0.3748474121
0.3764343262
0.3764343262
0.3802490234
0.3799133301
0.3818054199
0.3821411133
0.3811950684
0.3811950684
0.3799133301
0.3805541992
0.3793029785
0.3793029785
0.3773803711
0.378326416
0.3764343262
0.3770751953
0.3754882812
0.375793457
0.3748474121
0.3751525879
0.3739013672
0.3745422363
0.3739013672
0.374206543
0.3739013672
0.3735961914
0.3739013672
0.374206543
0.3729248047
0.3726196289
0.3710327148
0.3713684082
0.3707275391
0.3704223633
0.371673584
0.3713684082
0.3729248047
0.3729248047
0.3745422363
0.374206543
0.3735961914
0.3735961914
0.3745422363
0.3739013672
0.3748474121
0.374206543
0.3754882812
0.3748474121
0.3761291504
0.3764343262
0.3754882812
0.3764343262
0.3751525879
0.3761291504
0.3754882812
0.3761291504
0.3754882812
0.376739502
0.375793457
0.3764343262
0.375793457
0.375793457
0.376739502
0.3764343262
0.378326416
0.3776855469
0.378326416
0.3780212402
0.3786315918
0.3789672852
0.378326416
0.378326416
0.3789672852
0.3786315918
0.3799133301
0.3799133301
0.3815002441
0.3811950684
0.3830871582
0.3827819824
0.3846740723
0.3846740723
0.387512207
0.3878479004
0.3910217285
0.3913269043
0.3938598633
0.3938598633
0.396697998
0.3970336914
0.4014587402
0.402130127
0.4081115723
0.4084472656
0.4198608398
0.420501709
0.4398193359
0.4411010742
0.4642333984
0.4471130371
0.3193664551
0.3130187988
0.324432373
0.3257141113
0.3561401367
0.3564758301
0.3739013672
0.3748474121
0.3970336914
0.3979797363
0.4125671387
0.4132080078
0.422088623
0.4223937988
0.4262084961
0.4249267578
0.369140625
0.3659667969
0.257232666
0.2471008301
0.2578735352
0.2594604492
0.3158874512
0.3181152344
0.3659667969
0.3675537109
0.3941955566
0.3951416016
0.4056091309
0.4059143066
0.4068603516
0.4056091309
0.4014587402
0.4011535645
0.3964233398
0.3932189941
0.3970336914
0.4017944336
0.3916625977
0.3907165527
0.3862609863
0.3862609863
0.3869018555
0.3872070312
0.3865661621
0.3869018555
0.3853149414
0.3853149414
0.3837280273
0.3837280273
0.3821411133
0.3824462891
0.3799133301
0.3796081543
0.378326416
0.3789672852
0.3780212402
0.378326416
0.3821411133
0.3824462891
0.3976745605
0.3983154297
0.4147949219
0.4157409668
0.4353942871
0.4366455078
0.4629821777
0.4645690918
0.4864196777
0.4794616699
0.3590087891
0.3517150879
0.2252197266
0.2255249023
0.3840332031
0.325378418
0.5400085449
0.3678894043
-0.07943725586
0.004577636719
0.3143005371
0.325378418
0.4331665039
0.4360351562
0.4671020508
0.466796875
0.4541015625
0.4534606934
0.4376220703
0.4366455078
0.4214477539
0.4211425781
0.4043273926
0.4036865234
0.3919677734
0.3913269043
0.3869018555
0.3865661621
0.3824462891
0.3824462891
0.3786315918
0.378326416
0.3764343262
0.3764343262
0.3729248047
0.3729248047
0.3704223633
0.3704223633
0.3694458008
0.369140625
0.3697814941
0.3694458008
0.3707275391
0.3700866699
0.3710327148
0.3710327148
0.3704223633
0.3710327148
0.3713684082
0.371673584
0.3707275391
0.3707275391
0.371673584
0.3710327148
0.373260498
0.373260498
0.3770751953
0.3770751953
0.3793029785
0.3789672852
0.3815002441
0.3815002441
0.3830871582
0.3830871582
0.3853149414
0.3856201172
0.3881530762
0.3881530762
0.3897399902
0.3894348145
0.390045166
0.3897399902
0.3884887695
0.3887939453
0.3872070312
0.387512207
0.3859558105
0.3862609863
0.3850097656
0.3850097656
0.3837280273
0.3840332031
0.3830871582
0.3837280273
0.3824462891
0.3827819824
0.3818054199
0.3821411133
0.3815002441
0.3818054199
0.3805541992
0.3802490234
0.380859375
0.3811950684
0.3802490234
0.380859375
0.3802490234
0.3805541992
0.3799133301
0.3802490234
0.380859375
0.3799133301
0.3805541992
0.380859375
0.3799133301
0.3802490234
0.3789672852
0.3796081543
0.3789672852
0.3786315918
0.3796081543
0.3786315918
0.3793029785
0.3789672852
0.378326416
0.3786315918
0.3789672852
0.3789672852
0.3799133301
0.3796081543
0.3802490234
0.3802490234
0.3805541992
0.3805541992
0.3811950684
0.3805541992
0.3815002441
0.380859375
0.3821411133
0.3818054199
0.3815002441
0.3821411133
0.3811950684
0.3815002441
0.3805541992
0.380859375
0.3802490234
0.3805541992
0.3796081543
0.3796081543
0.3789672852
0.3793029785
0.378326416
0.3786315918
0.3776855469
0.3776855469
0.3761291504
0.375793457
0.3764343262
0.375793457
0.3764343262
0.3761291504
0.3780212402
0.3780212402
0.3789672852
0.3786315918
0.3802490234
0.3802490234
0.3815002441
0.3811950684
0.3821411133
0.3821411133
0.3837280273
0.3837280273
0.3856201172
0.3856201172
0.387512207
0.387512207
0.3869018555
0.3872070312
0.3859558105
0.3862609863
0.3872070312
0.3869018555
0.3878479004
0.387512207
0.3881530762
0.387512207
0.3850097656
0.3846740723
0.3830871582
0.3830871582
0.3843383789
0.3840332031
0.3865661621
0.3865661621
0.3872070312
0.3872070312
0.3850097656
0.3850097656
0.3793029785
0.3789672852
0.3729248047
0.3726196289
0.3713684082
0.371673584
0.3735961914
0.3735961914
0.3754882812
0.3754882812
0.3770751953
0.3770751953
0.3761291504
0.3764343262
0.3754882812
0.3754882812
0.3739013672
0.3739013672
0.3729248047
0.3739013672
0.3761291504
0.375793457
0.3770751953
0.376739502
0.3780212402
0.3780212402
0.3793029785
0.3793029785
0.3786315918
0.3786315918
0.3789672852
0.3789672852
0.378326416
0.378326416
0.3786315918
0.3789672852
0.378326416
0.3780212402
0.3796081543
0.3796081543
0.380859375
0.3815002441
0.3824462891
0.3824462891
0.3840332031
0.3837280273
0.3843383789
0.3840332031
0.3853149414
0.3846740723
0.3856201172
0.3853149414
0.383392334
0.383392334
0.3799133301
0.3796081543
0.375793457
0.3754882812
0.3719787598
0.3719787598
0.3700866699
0.3697814941
0.3710327148
0.3707275391
0.3723144531
0.3723144531
0.3745422363
0.374206543
0.376739502
0.3764343262
0.3786315918
0.3786315918
0.3802490234
0.3802490234
0.3818054199
0.3818054199
0.380859375
0.3811950684
0.378326416
0.378326416
0.3764343262
0.3764343262
0.3754882812
0.3754882812
0.3773803711
0.3773803711
0.3793029785
0.3789672852
0.3821411133
0.3824462891
0.3872070312
0.387512207
0.3913269043
0.3910217285
0.3932189941
0.3929138184
0.3869018555
0.3862609863
0.3726196289
0.3719787598
0.3536071777
0.353302002
0.3456726074
0.3456726074
0.3513793945
0.3517150879
0.3609008789
0.3615112305
0.3700866699
0.3704223633
0.3770751953
0.3773803711
0.3821411133
0.3815002441
0.3850097656
0.3850097656
0.3865661621
0.3865661621
0.3878479004
0.3878479004
0.3894348145
0.3894348145
0.390045166
0.3890991211
0.3897399902
0.3894348145
0.3903808594
0.3897399902
0.3910217285
0.3907165527
0.3919677734
0.3916625977
0.390045166
0.3903808594
0.3865661621
0.3862609863
0.3846740723
0.3846740723
0.383392334
0.3837280273
0.3853149414
0.3856201172
0.3890991211
0.3894348145
0.3926086426
0.3929138184
0.3948059082
0.3941955566
0.3979797363
0.3979797363
0.402130127
0.402130127
0.4081115723
0.4081115723
0.4189147949
0.4198608398
0.4366455078
0.4373168945
0.4585266113
0.4341125488
0.30859375
0.3051147461
0.3181152344
0.3193664551
0.3561401367
0.3564758301
0.374206543
0.3754882812
0.3979797363
0.3992614746
0.415435791
0.4157409668
0.4287414551
0.4293823242
0.4360351562
0.4350891113
0.378326416
0.3748474121
0.2692871094
0.2619934082
0.2737121582
0.2752990723
0.3291931152
0.3317260742
0.374206543
0.375793457
0.3976745605
0.3983154297
0.4056091309
0.4062194824
0.4056091309
0.4056091309
0.4014587402
0.4014587402
0.396697998
0.3938598633
0.3979797363
0.4027404785
0.3941955566
0.3932189941
0.3884887695
0.3887939453
0.3878479004
0.3884887695
0.3894348145
0.3890991211
0.3881530762
0.3884887695
0.3865661621
0.3865661621
0.3850097656
0.3853149414
0.3837280273
0.3837280273
0.3830871582
0.3837280273
0.3850097656
0.3850097656
0.3840332031
0.3837280273
0.3850097656
0.3846740723
0.3890991211
0.3897399902
0.4040222168
0.4046325684
0.420501709
0.4214477539
0.4426879883
0.4439697266
0.4731140137
0.4883422852
0.4683532715
0.4661254883
0.3190612793
0.3117675781
0.2280883789
0.2492980957
0.4027404785
0.5152893066
0.1282348633
0.08953857422
-0.09716796875
0.05087280273
0.3735961914
0.3805541992
0.415435791
0.4046325684
0.4553833008
0.4569396973
0.449005127
0.4483947754
0.4306335449
0.4299926758
0.4163818359
0.4157409668
0.4068603516
0.4059143066
0.3948059082
0.3945007324
0.3910217285
0.3910217285
0.390045166
0.390045166
0.3872070312
0.3872070312
0.3850097656
0.3846740723
0.3824462891
0.3827819824
0.3811950684
0.3818054199
0.380859375
0.3811950684
0.3805541992
0.380859375
0.3802490234
0.3802490234
0.3796081543
0.3799133301
0.3802490234
0.3802490234
0.3815002441
0.380859375
0.3824462891
0.3821411133
0.3811950684
0.3815002441
0.380859375
0.3815002441
0.3796081543
0.3796081543
0.3780212402
0.378326416
0.3770751953
0.3770751953
0.3761291504
0.3764343262
0.375793457
0.3761291504
0.3754882812
0.375793457
0.3748474121
0.3748474121
0.3754882812
0.3751525879
0.375793457
0.3751525879
0.3764343262
0.375793457
0.3764343262
0.3764343262
0.3773803711
0.376739502
0.3773803711
0.3764343262
0.3773803711
0.3770751953
0.3780212402
0.3770751953
0.3780212402
0.3773803711
0.3780212402
0.3780212402
0.3773803711
0.3780212402
0.3773803711
0.3776855469
0.3780212402
0.3776855469
0.378326416
0.3780212402
0.3786315918
0.3780212402
0.3793029785
0.3789672852
0.3786315918
0.3786315918
0.3799133301
0.3796081543
0.3805541992
0.3802490234
0.3815002441
0.3811950684
0.3821411133
0.3818054199
0.3824462891
0.3824462891
0.3830871582
0.3824462891
0.383392334
0.3830871582
0.380859375
0.3811950684
0.3793029785
0.3793029785
0.3786315918
0.3786315918
0.3780212402
0.378326416
0.3793029785
0.3786315918
0.3793029785
0.3789672852
0.3799133301
0.3799133301
0.3821411133
0.3821411133
0.3843383789
0.3846740723
0.3859558105
0.3859558105
0.3811950684
0.380859375
0.3773803711
0.3773803711
0.3761291504
0.3764343262
0.3751525879
0.3751525879
0.3770751953
0.3764343262
0.3773803711
0.3776855469
0.3754882812
0.3754882812
0.3745422363
0.3745422363
0.3751525879
0.3754882812
0.374206543
0.3748474121
0.374206543
0.3745422363
0.373260498
0.373260498
0.3719787598
0.3723144531
0.3710327148
0.3719787598
0.375793457
0.3761291504
0.378326416
0.378326416
0.3786315918
0.3789672852
0.378326416
0.378326416
0.3751525879
0.3751525879
0.3707275391
0.3697814941
0.3710327148
0.3713684082
0.375793457
0.3989257812
0.375793457
0.3796081543
0.3796081543
0.3815002441
0.3818054199
0.3811950684
0.3815002441
0.3821411133
0.3824462891
0.380859375
0.3811950684
0.3805541992
0.3811950684
0.3805541992
0.3802490234
0.3811950684
0.3805541992
0.3821411133
0.3824462891
0.3840332031
0.3843383789
0.3853149414
0.3846740723
0.3815002441
0.3811950684
0.3773803711
0.3773803711
0.3761291504
0.3761291504
0.376739502
0.3754882812
0.3773803711
0.3776855469
0.3799133301
0.3799133301
0.3811950684
0.3811950684
0.3821411133
0.3821411133
0.3811950684
0.3818054199
0.3805541992
0.380859375
0.3802490234
0.3805541992
0.3793029785
0.3793029785
0.3764343262
0.3761291504
0.373260498
0.373260498
0.371673584
0.371673584
0.3739013672
0.3739013672
0.3761291504
0.3761291504
0.3773803711
0.3770751953
0.378326416
0.3780212402
0.3793029785
0.3793029785
0.3815002441
0.3815002441
0.383392334
0.3827819824
0.3843383789
0.3840332031
0.3853149414
0.3846740723
0.3850097656
0.3850097656
0.3843383789
0.3846740723
0.3837280273
0.3840332031
0.3827819824
0.383392334
0.3827819824
0.3824462891
0.3837280273
0.3837280273
0.3824462891
0.3830871582
0.3821411133
0.3821411133
0.383392334
0.3827819824
0.3840332031
0.3840332031
0.383392334
0.3840332031
0.383392334
0.3837280273
0.3824462891
0.3827819824
0.3815002441
0.3818054199
0.380859375
0.380859375
0.3796081543
0.3802490234
0.3789672852
0.3793029785
0.3776855469
0.3773803711
0.3745422363
0.3745422363
0.3726196289
0.3726196289
0.373260498
0.373260498
0.3726196289
0.3729248047
0.3723144531
0.3726196289
0.3735961914
0.3729248047
0.371673584
0.3719787598
0.3713684082
0.3710327148
0.3723144531
0.3723144531
0.373260498
0.3729248047
0.3748474121
0.3745422363
0.3770751953
0.3770751953
0.3793029785
0.3796081543
0.3824462891
0.3821411133
0.3843383789
0.3840332031
0.3853149414
0.3850097656
0.3859558105
0.3859558105
0.3850097656
0.3862609863
0.3846740723
0.3846740723
0.3818054199
0.3818054199
0.3796081543
0.3796081543
0.3780212402
0.3776855469
0.3796081543
0.3793029785
0.3805541992
0.3805541992
0.3837280273
0.383392334
0.3881530762
0.3884887695
0.3916625977
0.3916625977
0.3938598633
0.3935546875
0.3960876465
0.3954467773
0.3970336914
0.3973693848
0.4056091309
0.4062194824
0.4217529297
0.4223937988
0.4445800781
0.4512329102
0.317779541
0.3146362305
0.2857666016
0.2857666016
0.3143005371
0.3155822754
0.3393554688
0.3409118652
0.3887939453
0.3907165527
0.445526123
0.448059082
0.507019043
0.5095825195
0.5479125977
0.546661377
0.4109802246
0.4017944336
0.1887512207
0.1703796387
0.257232666
0.2759399414
0.4366455078
0.2854309082
-0.1463317871
0.03945922852
0.376739502
0.3869018555
0.4661254883
0.4683532715
0.5032348633
0.5029296875
0.4867553711
0.4854736328
0.4594726562
0.4585266113
0.4366455078
0.4356994629
0.41796875
0.4170227051
0.4036865234
0.4030761719
0.3957519531
0.3954467773
0.3919677734
0.3919677734
0.3884887695
0.3884887695
0.387512207
0.3872070312
0.3884887695
0.3884887695
0.3897399902
0.390045166
0.3913269043
0.3913269043
0.3907165527
0.3910217285
0.390045166
0.3897399902
0.3884887695
0.3881530762
0.3853149414
0.3856201172
0.3824462891
0.3824462891
0.3796081543
0.3796081543
0.3754882812
0.3754882812
0.3719787598
0.3719787598
0.373260498
0.373260498
0.3748474121
0.374206543
0.3754882812
0.3751525879
0.3776855469
0.3780212402
0.3799133301
0.3799133301
0.3837280273
0.3840332031
0.3862609863
0.3862609863
0.3881530762
0.3872070312
0.3884887695
0.387512207
0.3878479004
0.387512207
0.3862609863
0.3865661621
0.3846740723
0.3850097656
0.3840332031
0.3837280273
0.3824462891
0.3824462891
0.3815002441
0.3815002441
0.3821411133
0.3815002441
0.3824462891
0.3821411133
0.3827819824
0.3824462891
0.3811950684
0.3815002441
0.3802490234
0.3805541992
0.3789672852
0.3789672852
0.3780212402
0.378326416
0.3776855469
0.3773803711
0.3780212402
0.3780212402
0.3773803711
0.3776855469
0.3770751953
0.3773803711
0.3764343262
0.376739502
0.375793457
0.3761291504
0.3754882812
0.375793457
0.3764343262
0.3761291504
0.3773803711
0.3770751953
0.3776855469
0.3773803711
0.3780212402
0.378326416
0.3773803711
0.3780212402
